0,1,2,3,4,5,6,7,8,9,10,11,12,13,14,15,16,17
1.8959080352374498e-08,1.6355693452583987e-07,1.5022655148580063e-07,-5.644657697995272e-09,2.4108367487116785e-07,3.186913214585081e-07,5.464105823718195e-07,2.0119916279145425e-07,4.837106855706658e-07,2.6732500145746907e-07,4.5265315318388675e-07,4.236141923577074e-07,3.5794612928115124e-07,4.0272836052118714e-07,2.536842711748996e-07,6.516424870567143e-07,-1.8462046153807334e-07,-7.591855770299697e-08
1.0190271949908478e-08,1.701996076909029e-07,1.481428589482959e-07,-1.619206536283976e-08,2.231596565238738e-07,2.6789015020753987e-07,5.145684654104126e-07,1.8486620881182946e-07,4.326764895598376e-07,2.3214722280752082e-07,4.1728702935359117e-07,3.897235321186766e-07,3.496088575547268e-07,4.093589454768845e-07,-1.0071041070980939e-08,5.085639306608703e-07,-1.8404087231853636e-07,-7.572766982410913e-08
1.0093906478363115e-08,1.6672791161701628e-07,1.4714709704690413e-07,-1.7406600701082655e-08,2.0970700656971275e-07,2.185627311701014e-07,4.856343041144511e-07,1.7676314087741884e-07,3.8612788162667353e-07,1.996062661635422e-07,3.712591940052473e-07,3.5199879278300026e-07,3.419097693067186e-07,3.9038370432856246e-07,-2.4453562231428034e-07,-2.924584313195337e-09,-1.569537890400074e-07,-4.844422734520093e-08
1.5970774279238975e-08,1.5607889678643142e-07,1.4565441218464868e-07,-1.283576483093428e-08,1.993320577640115e-07,1.710340485539282e-07,4.482496130287638e-07,1.736162339622086e-07,3.436958735296327e-07,1.6841796207971394e-07,3.1805844670339194e-07,3.1223617484512065e-07,3.2975316645071337e-07,3.429073447788124e-07,-5.5047187062381e-07,-5.357130028914833e-07,-1.0295434806635201e-07,2.2817102248769776e-10
2.518894873247722e-08,1.4085823218257467e-07,1.415797258225559e-07,-4.65384949433914e-09,1.8840160189270047e-07,1.2447304594837894e-07,3.893663178039021e-07,1.703985240261308e-07,3.014327660072839e-07,1.3714799134695004e-07,2.594061272365492e-07,2.693160642039189e-07,3.070055676415354e-07,2.701259493872808e-07,-9.61263824183124e-07,-8.475943258908311e-07,-2.921933975587995e-08,5.970481255948318e-08
3.502632234303438e-08,1.2128690769940172e-07,1.3110134120186637e-07,5.224909552055215e-09,1.7099516209237356e-07,7.72325550562933e-08,2.998078573134545e-07,1.6085943977162706e-07,2.5266595555283547e-07,1.0397787903129966e-07,1.9459755645593109e-07,2.1904936985053096e-07,2.673493633010843e-07,1.7888218274937476e-07,-1.4139739203123262e-06,-1.100665162469e-06,5.089783630061792e-08,1.1545666694561459e-07
4.2637716766183325e-08,9.521930528748446e-08,1.0987913036557359e-07,1.453775613693874e-08,1.4081207576608588e-07,2.856038268671724e-08,1.793637357124684e-07,1.396783487867597e-07,1.9062594640009698e-07,6.755957556107377e-08,1.2230355365520736e-07,1.5695810083194707e-07,2.0683595104610733e-07,7.893517313536836e-08,-1.7887930388520686e-06,-1.2186651361369326e-06,1.2337406169757715e-07,1.5330070600253824e-07
4.575520258699692e-08,6.101891050017355e-08,7.633431935699399e-08,2.1579988027988055e-08,9.49221674784188e-08,-1.9812538947739406e-08,3.893076830066808e-08,1.0483629794793373e-07,1.1194013839202755e-07,2.7980109125854208e-08,4.3233778382496776e-08,8.12943545368457e-08,1.2571276048217333e-07,-1.783224745886617e-08,-1.9571855597705106e-06,-9.79925961499211e-07,1.773428522951031e-07,1.6359283737182774e-07
4.300466756702666e-08,1.9206064736959283e-08,3.242924857746652e-08,2.526436087378573e-08,3.536969525052967e-08,-6.463674369728384e-08,-1.0360235408815328e-07,5.712642820707689e-08,1.818482226485078e-08,-1.3907713508681096e-08,-3.9510407365726124e-08,-6.359971738377056e-09,2.771549480564951e-08,-1.0129086046738142e-07,-1.8161198234669734e-06,-5.241850006380079e-07,2.0468673331698765e-07,1.4286680813630478e-07
3.325771774244052e-08,-2.818913699329434e-08,-1.8694657936669702e-08,2.40130465670191e-08,-3.293980914746804e-08,-1.033340269811152e-07,-2.311920516619559e-07,-2.0384815509399603e-09,-8.525028086093414e-08,-5.7646526764326626e-08,-1.220043649414354e-07,-1.0154852256344424e-07,-8.09572077553404e-08,-1.671065796033586e-07,-1.321007326756321e-06,-8.343923635012101e-08,1.997240801051105e-07,9.452573735125332e-08
1.5650042260763333e-08,-7.851819207938337e-08,-7.374925126488273e-08,1.638885364991406e-08,-1.0458166668406424e-07,-1.348993825605421e-07,-3.323960077822794e-07,-7.053773154422838e-08,-1.9102487966538662e-07,-1.0254554643172562e-07,-2.001335629082624e-07,-1.966923689215024e-07,-1.9109820278263197e-07,-2.163068243752533e-07,-5.08529850241572e-07,2.6852681466992865e-07,1.6203996379218006e-07,2.9181891138930057e-08
-8.86293998758145e-09,-1.262247795616092e-07,-1.2771860640398708e-07,3.768128531307e-09,-1.7375226290875685e-07,-1.586156710289311e-07,-4.014977474418423e-07,-1.4337588466832144e-07,-2.914251137664381e-07,-1.4608129234849696e-07,-2.6935277411010467e-07,-2.818573003424098e-07,-2.9096944622611245e-07,-2.5254763659806934e-07,5.049478339574727e-07,5.96320028687091e-07,9.873366761805352e-08,-3.79500725211972e-08
-3.664517330278232e-08,-1.6782787540555674e-07,-1.7401222192942418e-07,-8.932910785274064e-09,-2.345614706116887e-07,-1.7383280655538037e-07,-4.389293758399603e-07,-2.1280239484645665e-07,-3.8063795216293074e-07,-1.8429437489015497e-07,-3.261454348400665e-07,-3.4867380427042416e-07,-3.705971662123031e-07,-2.8150897693654774e-07,1.5416608538496924e-06,8.374721258158101e-07,2.1788490387293864e-08,-9.320936140217229e-08
-6.306557851890223e-08,-2.019511331017314e-07,-2.0829294349183953e-07,-1.6476580135427367e-08,-2.8349348182632837e-07,-1.8130977162499791e-07,-4.5355937330069574e-07,-2.7195866524095587e-07,-4.5737307353631416e-07,-2.1429768514929673e-07,-3.7078353406249144e-07,-3.9503387710808267e-07,-4.2689095450622003e-07,-3.1048707359838817e-07,2.396672844780385e-06,9.8202578905707e-07,-5.73329491907902e-08,-1.297483677299298e-07
-8.505796474826009e-08,-2.3186989996535945e-07,-2.3152383523515687e-07,-1.69113059584536e-08,-3.2150090494885235e-07,-1.8404601382583192e-07,-4.615867215792248e-07,-3.178526293983841e-07,-5.252480902008715e-07,-2.3570313211033012e-07,-4.077851551963367e-07,-4.2568714282343604e-07,-4.640378044713546e-07,-3.444768744076412e-07,2.8981812742792957e-06,9.14107300939607e-07,-1.3059426820951194e-07,-1.4760485208194398e-07
-1.0210299450128172e-07,-2.595717539198501e-07,-2.485031687281469e-07,-1.1723308372663035e-08,-3.5295350208171363e-07,-1.8595727985964456e-07,-4.795680123618296e-07,-3.5077799793315143e-07,-5.901011687110289e-07,-2.4968573637041116e-07,-4.430836055518792e-07,-4.483375937600663e-07,-4.892862779158997e-07,-3.817645869319609e-07,2.976804799550215e-06,5.344539333016892e-07,-1.928716573937711e-07,-1.502545219208893e-07
-1.1546290919046475e-07,-2.884334692478864e-07,-2.6460060043314346e-07,-3.7931767531201705e-09,-3.83140591547413e-07,-1.9024739009295113e-07,-5.175320960966942e-07,-3.7273164228231677e-07,-6.570045820383456e-07,-2.5786375163733216e-07,-4.812316201146147e-07,-4.6986095803453436e-07,-5.094690371310012e-07,-4.149728428055402e-07,2.700510402108863e-06,2.064318107093734e-07,-2.4124778013870886e-07,-1.4248731830203613e-07
-1.2760553996635785e-07,-3.2083395032494675e-07,-2.8466524506937563e-07,3.530564514358812e-09,-4.1729425516800076e-07,-1.9927213937343458e-07,-5.777292542660946e-07,-3.874358313929792e-07,-7.293713764684867e-07,-2.624665438438717e-07,-5.249930121536028e-07,-4.950381745509658e-07,-5.304085230494112e-07,-4.36677448974235e-07,2.2553174769050006e-06,-9.941898787482855e-08,-2.7497831350930515e-07,-1.3045452283422523e-07
-1.420535222856159e-07,-3.5878446947097906e-07,-3.1298932459222853e-07,6.465891048428369e-09,-4.6047809412757843e-07,-2.1503828561280899e-07,-6.566163220903243e-07,-4.002243335617053e-07,-8.090805692663576e-07,-2.6653539939562187e-07,-5.757269759922648e-07,-5.25809544281478e-07,-5.563151250103704e-07,-4.434366170451924e-07,1.8827563353492127e-06,-4.6054593494848976e-07,-2.9427861135159184e-07,-1.2046594619253427e-07
-1.623111819176375e-07,-4.0295287319915993e-07,-3.5165457587078526e-07,2.0611851282940095e-09,-5.161813399898825e-07,-2.383906675871258e-07,-7.462478313891529e-07,-4.156534426122157e-07,-8.960246635606169e-07,-2.721945381841403e-07,-6.329951185237685e-07,-5.602565841691868e-07,-5.882409680371584e-07,-4.3629290595925057e-07,1.7918069281974147e-06,-1.122056239946262e-06,-2.9863800685474433e-07,-1.1575637218406444e-07
-1.903687288130616e-07,-4.5166688698991465e-07,-3.9892743650565845e-07,-1.0191053596464477e-08,-5.845461998303655e-07,-2.6834283595536623e-07,-8.364720312400864e-07,-4.3589750168738425e-07,-9.880083066970242e-07,-2.800640378288634e-07,-6.947622534741414e-07,-5.936047358816309e-07,-6.245389853930303e-07,-4.202234557188079e-07,2.0712737490132378e-06,-1.7544359959501176e-06,-2.875478539476474e-07,-1.1500565686344965e-07
-2.2645149396966546e-07,-5.034797896797692e-07,-4.5052462726413795e-07,-2.8684926711237887e-08,-6.62610508826377e-07,-3.0282540008524403e-07,-9.191990804095562e-07,-4.6093128336704223e-07,-1.0820254658913386e-06,-2.899389658463985e-07,-7.59044641999189e-07,-6.216492906657603e-07,-6.637070365136029e-07,-4.0250578062455716e-07,2.647506120796449e-06,-2.0624598685035736e-06,-2.6305918387651893e-07,-1.142860213170219e-07
-2.6995858845144074e-07,-5.572323026193513e-07,-5.018357691058667e-07,-5.0920214757966656e-08,-7.45823363433289e-07,-3.3962959743127953e-07,-9.90985453276457e-07,-4.895334884594358e-07,-1.175437857386465e-06,-3.0115031462390006e-07,-8.248167814817012e-07,-6.429944820128852e-07,-7.056162714656501e-07,-3.883797780485251e-07,3.3204787958428796e-06,-2.278434248985691e-06,-2.3004871843593592e-07,-1.093645811415874e-07
-3.1957272328167776e-07,-6.134796768035889e-07,-5.476739875439667e-07,-7.3094935856753e-08,-8.282915138385916e-07,-3.759786329515124e-07,-1.051327120108345e-06,-5.188235047261901e-07,-1.2655855450531164e-06,-3.1194113855789134e-07,-8.907908236713391e-07,-6.583451846187585e-07,-7.495578613641362e-07,-3.766023607394765e-07,3.865048862422845e-06,-2.1355310823619084e-06,-1.9350124270873066e-07,-9.651492479436929e-08
-3.724955752479251e-07,-6.704526047749364e-07,-5.813415968615392e-07,-8.944927750525015e-08,-9.023936748138451e-07,-4.081121625435472e-07,-1.1004693059033876e-06,-5.43720302624552e-07,-1.3491688464977373e-06,-3.1914999101136487e-07,-9.544230686076817e-07,-6.694240612267755e-07,-7.928885550366278e-07,-3.5971855064484965e-07,4.1392020873579965e-06,-1.8628978636917421e-06,-1.5703571393884094e-07,-7.349434114670984e-08
-4.248574690708149e-07,-7.242076582758175e-07,-5.972316185873268e-07,-9.47197258184746e-08,-9.606228507665037e-07,-4.3319450756570516e-07,-1.1406486647000199e-06,-5.596785237100288e-07,-1.4233972139227655e-06,-3.1985915891028595e-07,-1.0132788750074372e-06,-6.79308450463922e-07,-8.328958244839421e-07,-3.2932554533834984e-07,4.135243439276146e-06,-1.5217830141200982e-06,-1.2412260093129625e-07,-4.115583160709699e-08
-4.7374636719507637e-07,-7.713124883446401e-07,-5.954946545887556e-07,-8.843102192173707e-08,-9.991046712188729e-07,-4.516013921386555e-07,-1.1778255850362762e-06,-5.664602689629109e-07,-1.4880394114935084e-06,-3.1401476515852006e-07,-1.0667079860586516e-06,-6.920978727483829e-07,-8.689328891866594e-07,-2.8209546778314484e-07,3.946236003887559e-06,-1.1525908765329965e-06,-9.805030100339066e-08,-3.802764024688193e-09
-5.186365994486821e-07,-8.117700768305819e-07,-5.829168706285602e-07,-7.590720090068322e-08,-1.0187855915746706e-06,-4.6637646638562516e-07,-1.2191437863784278e-06,-5.684173785984998e-07,-1.5455711240588412e-06,-3.040245559031389e-07,-1.114866751437372e-06,-7.102419991683236e-07,-9.015913359615387e-07,-2.2332613862593257e-07,3.6765213144492852e-06,-8.746123486666547e-07,-7.9248954750721e-08,3.224969480812104e-08
-5.608113432287279e-07,-8.472875930839879e-07,-5.689987006986255e-07,-6.48425908096444e-08,-1.0232742566782487e-06,-4.800064014268189e-07,-1.268148967303121e-06,-5.712336748010504e-07,-1.5988241913436354e-06,-2.926846826944593e-07,-1.1562312735580851e-06,-7.320023688056783e-07,-9.306794191649e-07,-1.6716222378370129e-07,3.3692517354807984e-06,-6.576372002306811e-07,-6.482195014851918e-08,6.033658652056488e-08
-6.022740289803924e-07,-8.804166156617942e-07,-5.622808638543723e-07,-6.191022030848094e-08,-1.0167145671309868e-06,-4.92518993639099e-07,-1.3233850560815247e-06,-5.799624690264364e-07,-1.6486533518025712e-06,-2.8243859593618355e-07,-1.1869560868250522e-06,-7.517516294481422e-07,-9.549022319978615e-07,-1.3320287612374697e-07,3.0018521559886253e-06,-4.1081056941734675e-07,-5.29790562280649e-08,7.468946806231814e-08
-6.455028945620613e-07,-9.140242375684383e-07,-5.6933618497977e-07,-7.203819133961347e-08,-1.0034362192598602e-06,-5.020907081355058e-07,-1.3799007893943458e-06,-5.991870066258771e-07,-1.693365779279871e-06,-2.7543409937148924e-07,-1.2021291668163846e-06,-7.617060785344863e-07,-9.71968566942527e-07,-1.389268382833952e-07,2.535449999242453e-06,-1.887310408085725e-07,-4.710003300116801e-08,7.249556930429962e-08
-6.929285715024683e-07,-9.5120327465952e-07,-5.932779817757513e-07,-9.764078026105284e-08,-9.869090759089432e-07,-5.054975315255161e-07,-1.4287044524311343e-06,-6.317482843261469e-07,-1.7287127163725505e-06,-2.725384814245561e-07,-1.1962642979677034e-06,-7.522437756460022e-07,-9.768533509544199e-07,-1.8981147293176416e-07,1.962504454290505e-06,-1.9644792640542886e-08,-5.308552546843916e-08,5.6674328804240916e-08
-7.450756978596783e-07,-9.9148953784699e-07,-6.305512650365699e-07,-1.3610040869458867e-07,-9.66653216172392e-07,-4.974066291186874e-07,-1.4549479979756386e-06,-6.75417704335771e-07,-1.747502200726236e-06,-2.7137429345966856e-07,-1.1630408285320856e-06,-7.1202650056369e-07,-9.60472951869254e-07,-2.717964829141631e-07,1.3246598576492653e-06,9.558397243469675e-08,-7.222560828655215e-08,3.6311072423327066e-08
-7.989996761425021e-07,-1.0297477838097964e-06,-6.702392177870272e-07,-1.7887630309338115e-07,-9.365835382952738e-07,-4.710054279376978e-07,-1.4411105456436435e-06,-7.210159259508258e-07,-1.7405822950936557e-06,-2.663108880709403e-07,-1.0970109835204166e-06,-6.310255644167499e-07,-9.125843750388091e-07,-3.524659019661534e-07,7.133182174164716e-07,1.762085632487515e-07,-9.726679098651675e-08,2.2985717869831683e-08
-8.490219133354311e-07,-1.0580976813195593e-06,-6.985540546091844e-07,-2.150288557053341e-07,-8.876884737791505e-07,-4.2106373999878223e-07,-1.3757787690849083e-06,-7.560597592349996e-07,-1.700352942424225e-06,-2.51023940093713e-07,-9.972321888440432e-07,-5.055142874228023e-07,-8.273265195068622e-07,-3.93566915320662e-07,2.553485379446841e-07,3.0200156613028954e-07,-1.1445484220901111e-07,2.6084703278470704e-08
-8.890969950179733e-07,-1.0699777275154444e-06,-7.046768423712366e-07,-2.3627230627046957e-07,-8.127804728616108e-07,-3.4666764300377697e-07,-1.2602130665882762e-06,-7.696972914178505e-07,-1.624433827799163e-06,-2.2152326921143185e-07,-8.691828961939444e-07,-3.403941042619017e-07,-7.06051142458365e-07,-3.687601018666938e-07,6.083062023783417e-08,5.902331109724657e-07,-1.0834653315103107e-07,5.0810937197842307e-08
-9.14697489568646e-07,-1.0628836544969866e-06,-6.833460551458554e-07,-2.3913427271562424e-07,-7.092885567298067e-07,-2.51382534985659e-07,-1.1071203477267026e-06,-7.549291347881853e-07,-1.5167685786741516e-06,-1.7695905461529815e-07,-7.232409019592061e-07,-1.4724795491031238e-07,-5.562560837543281e-07,-2.759312108089672e-07,1.482733667142801e-07,1.0180995814462173e-06,-6.698766405167207e-08,9.799423222763438e-08
-9.235961474004171e-07,-1.0377699496603748e-06,-6.349496026953012e-07,-2.2410574747601165e-07,-5.796630981678344e-07,-1.419392639358095e-07,-9.349084092974545e-07,-7.10732213980366e-07,-1.3866423698765328e-06,-1.1939055181679027e-07,-5.720543577135737e-07,5.8661329024195894e-08,-3.9003774992556953e-07,-1.3680788103283185e-07,4.173020244764111e-07,1.437607941966943e-06,1.2990759778888895e-08,1.6317114635858115e-07
-9.162860710306463e-07,-9.99065681037866e-07,-5.656129778639851e-07,-1.9423157549094353e-07,-4.3119881779794235e-07,-2.7120133679833514e-08,-7.626077370767659e-07,-6.421832758226661e-07,-1.2471012580855279e-06,-5.3530941310300676e-08,-4.2859379952495213e-07,2.60502542242658e-07,-2.229937971464165e-07,1.501656630064632e-08,7.027504663992312e-07,1.744753396341515e-06,1.2397011761324795e-07,2.3614938965756678e-07
-8.957048768310497e-07,-9.537816988556574e-07,-4.861150584032593e-07,-1.5358871050019352e-07,-2.749344160911526e-07,8.424847700383553e-08,-6.058464798719441e-07,-5.592761706216009e-07,-1.1124079833799764e-06,1.474966476213356e-08,-3.037431878842088e-07,4.4282318933545783e-07,-7.107223431394357e-08,1.487331770750862e-07,8.655977754256534e-07,1.8215928463858088e-06,2.5023614076871117e-07,3.036690727200485e-07
-8.65910609678738e-07,-9.101107386855037e-07,-4.0804297143196973e-07,-1.0524952591268207e-07,-1.2258907806119038e-07,1.8622704754054294e-07,-4.734651583819778e-07,-4.7301762295503445e-07,-9.943363618670136e-07,8.08328576896303e-08,-2.0331364911259872e-07,5.955765274716762e-07,5.428723199799095e-08,2.450148452036275e-07,8.608156264754032e-07,1.6055269543418454e-06,3.7375349865552346e-07,3.5407271913004154e-07
-8.305792058700349e-07,-8.747218665969119e-07,-3.3983372455070234e-07,-5.0471202991420004e-08,1.6629946138754558e-08,2.7715521373642413e-07,-3.66989908578805e-07,-3.9158823761062074e-07,-8.994208945283962e-07,1.4239866433801371e-07,-1.2712096224591234e-07,7.161369109394147e-07,1.4884131416834515e-07,2.9712201497996196e-07,7.56494201422339e-07,1.1226103423242354e-06,4.785080777027256e-07,3.8085083931646665e-07
-7.929585824676231e-07,-8.509491088441667e-07,-2.856340374095402e-07,9.64892332504783e-09,1.369879673031355e-07,3.581158258772911e-07,-2.8312282966555127e-07,-3.1969213322049033e-07,-8.28924982843264e-07,1.9855263434362032e-07,-7.104613724388059e-08,8.079845297300649e-07,2.1470834591861435e-07,3.086892557768749e-07,6.948273098946722e-07,4.6848210735165784e-07,5.532101644145501e-07,3.839619553512703e-07
-7.56595546780763e-07,-8.386999329006381e-07,-2.45565816730814e-07,7.244169976492486e-08,2.3598482299876063e-07,4.306462636527786e-07,-2.1580351773773845e-07,-2.588962787094598e-07,-7.804124128692472e-07,2.487322394335875e-07,-2.9507367460550377e-08,8.779998834573314e-07,2.582119563620564e-07,2.9147080863206305e-07,8.096551377211921e-07,-2.588021179244034e-07,5.939815137113299e-07,3.6921672855557855e-07
-7.250578090858639e-07,-8.335160052748485e-07,-2.1564071437399235e-07,1.342512556128667e-07,3.1462287730082015e-07,4.960046725883535e-07,-1.570537924961608e-07,-2.07621814187505e-07,-7.492589972395804e-07,2.928462274745454e-07,3.2660361264805173e-09,9.335960955612575e-07,2.8744056689234654e-07,2.622931735597917e-07,1.1547546325160397e-06,-9.301457535493941e-07,6.055385976161982e-07,3.4572764707195243e-07
-7.008122812181064e-07,-8.289947323615439e-07,-1.8896809829130068e-07,1.920810192715449e-07,3.769768926283345e-07,5.550984975251661e-07,-9.966393289461301e-08,-1.6160460915911255e-07,-7.302135611678816e-07,3.3161972099250947e-07,3.2049782802610545e-08,9.797591808556994e-07,3.0910872522920873e-07,2.3854316673788535e-07,1.6919013990490707e-06,-1.2573506587524689e-06,5.989734753204742e-07,3.224516073516686e-07
-6.843059617550823e-07,-8.192333700089809e-07,-1.5891242012910648e-07,2.446144122733186e-07,4.279901530517077e-07,6.082828973178949e-07,-4.11642601446642e-08,-1.160892649675281e-07,-7.190742437854854e-07,3.664567874905141e-07,5.924920876974309e-08,1.0175492516349448e-06,3.2622645032760467e-07,2.3412082945857757e-07,2.331908694927762e-06,-1.4484729677726013e-06,5.877807189623722e-07,3.0624390792818575e-07
-6.733655468008313e-07,-8.018467284025602e-07,-1.2127571028238277e-07,2.9315385348694315e-07,4.715877167257679e-07,6.556295968292138e-07,1.5761527827334148e-08,-6.72059586959845e-08,-7.133333484658526e-07,3.99560976947136e-07,8.464268202455319e-08,1.0452663391299962e-06,3.3837796035685403e-07,2.578020006181936e-07,2.9825130111712003e-06,-1.6246548671014396e-06,5.839359104918825e-07,3.0204706628719084e-07
-6.632120228798428e-07,-7.763724697779596e-07,-7.4266318271983e-08,3.421175764243956e-07,5.105511227965421e-07,6.974695339188459e-07,6.667015854924442e-08,-1.2476426787088977e-08,-7.117353983169092e-07,4.337718400650567e-07,1.0617367121198506e-07,1.0604318562153975e-06,3.433053040892412e-07,3.1263843150666816e-07,3.5760481305361355e-06,-1.4851493534598705e-06,5.937520500064866e-07,3.128414210686139e-07
-6.482921841567392e-07,-7.442298279134663e-07,-1.86934257752288e-08,3.96934647335133e-07,5.464262101292487e-07,7.337711898930966e-07,1.0764887283649858e-07,4.8181425329890196e-08,-7.141731414565218e-07,4.71148428795089e-07,1.2067928907694437e-07,1.0607565076863668e-06,3.3803459898702835e-07,3.951681747288998e-07,4.075833095652517e-06,-1.1557522693053194e-06,6.150132142738541e-07,3.383260972270168e-07
-6.25552224245592e-07,-7.089006604286536e-07,4.113681030623865e-08,4.59920816047618e-07,5.786148819266398e-07,7.631236766191063e-07,1.3536059128065557e-07,1.1098038729670112e-07,-7.21856329294557e-07,5.114876543417966e-07,1.250865025320642e-07,1.0454399992822734e-06,3.2054851773532673e-07,4.957412632218278e-07,4.472877737424876e-06,-8.686098233884165e-07,6.385102631994574e-07,3.7480006520262396e-07
-5.964982060360325e-07,-6.754914352951823e-07,9.852198730054573e-08,5.281513902218906e-07,6.048677965487198e-07,7.833681581735102e-07,1.4797812165610743e-07,1.691026242447597e-07,-7.361678074113187e-07,5.525081465074567e-07,1.1882817950255658e-07,1.0176246293671546e-06,2.924725575760392e-07,6.003616075254003e-07,4.784771830679161e-06,-6.750168874586199e-07,6.532031320256324e-07,4.172917366050419e-07
-5.662913250983668e-07,-6.486050315009388e-07,1.473407754767339e-07,5.949944763516539e-07,6.238772947978405e-07,7.937754693351564e-07,1.471664000897691e-07,2.1575693964009166e-07,-7.564203909049467e-07,5.913833844835829e-07,1.0563651569029352e-07,9.85317559961667e-07,2.6011844594702577e-07,6.928054426782593e-07,5.046582150027905e-06,-5.300039398215017e-07,6.507662060743418e-07,4.611477462687982e-07
-5.410870612127966e-07,-6.303358161348694e-07,1.834568699909294e-07,6.527294266530367e-07,6.371912633589113e-07,7.964937788177353e-07,1.384148247345798e-07,2.463555064994111e-07,-7.785613618520532e-07,6.256281725101861e-07,9.262622364135949e-08,9.589057000540254e-07,2.3248820302148815e-07,7.57744642880061e-07,5.279044774364238e-06,-4.031693642540265e-07,6.280790139044054e-07,5.018089122372748e-07
-5.253799011016081e-07,-6.208767251600473e-07,2.0418053058581517e-07,6.946288940378195e-07,6.490179835382373e-07,7.965711465013384e-07,1.297102114291939e-07,2.593615346630028e-07,-7.956353760040752e-07,6.535999977231254e-07,8.785440569077572e-08,9.47817283007572e-07,2.187510130257303e-07,7.868880135076763e-07,5.460758881400628e-06,-2.511173835645916e-07,5.8928952216246e-07,5.352999246660634e-07
-5.199006510246101e-07,-6.185879928959718e-07,2.0875145829533552e-07,7.174665820824674e-07,6.655159364682989e-07,8.012370465999285e-07,1.3039279886200413e-07,2.576056867934133e-07,-7.993815000276116e-07,6.755194357877134e-07,9.845337926514975e-08,9.587517745339052e-07,2.2683565723225215e-07,7.855655410623825e-07,5.543586540904289e-06,-5.352356590093498e-08,5.46515603579444e-07,5.60143904958509e-07
-5.207612427188252e-07,-6.20620006463743e-07,1.997615454178976e-07,7.234716444782496e-07,6.938121455012978e-07,8.180020812619467e-07,1.4938420935260965e-07,2.4856083133779213e-07,-7.82894878231555e-07,6.936889399741765e-07,1.288359445785831e-07,9.943898338810316e-07,2.6133942649254544e-07,7.72516209763747e-07,5.4995436858365835e-06,1.708161999021114e-07,5.161449669898576e-07,5.779023289023514e-07
-5.211774730268773e-07,-6.235532791062697e-07,1.8251783686851016e-07,7.190269223258807e-07,7.390458459768202e-07,8.512433174790022e-07,1.9130094483135692e-07,2.415363032369976e-07,-7.440621522811815e-07,7.109652828205525e-07,1.7837941431777535e-07,1.0518161939346045e-06,3.2045700468009613e-07,7.700635682866449e-07,5.356095442996857e-06,3.6825688182838266e-07,5.121013097668233e-07,5.917927338549989e-07
-5.149938922324517e-07,-6.250967648360329e-07,1.626395697766909e-07,7.111184765212799e-07,8.007827558309807e-07,8.994060504337323e-07,2.529881254098483e-07,2.438852911597784e-07,-6.874919296783859e-07,7.293748487803241e-07,2.408313545597361e-07,1.1228747477923623e-06,3.9538151018830814e-07,7.912626036418487e-07,5.197211408330232e-06,4.814575442773983e-07,5.411291129606748e-07,6.059231456552384e-07
-4.993061014992237e-07,-6.247209322157028e-07,1.4488764384086596e-07,7.052938699547938e-07,8.716942728162582e-07,9.5532400019171e-07,3.241223439818118e-07,2.5904401436393096e-07,-6.229451028049043e-07,7.500899056642783e-07,3.0701210887388703e-07,1.1973910802378437e-06,4.737590035953543e-07,8.337208961919615e-07,5.1274034454175575e-06,4.859763124182392e-07,6.016123647035797e-07,6.251773845859868e-07
-4.749600913086337e-07,-6.232840329741818e-07,1.3305614021507096e-07,7.055678206305444e-07,9.406582364211415e-07,1.0089372749775445e-06,3.910168430104891e-07,2.863612567720831e-07,-5.616968564998572e-07,7.737804971385042e-07,3.6846902153858814e-07,1.2663784430812585e-06,5.440662172378794e-07,8.83818878904792e-07,5.2019780284592645e-06,4.1366786816017464e-07,6.841229647455595e-07,6.534195492179969e-07
-4.459211921959746e-07,-6.220496028589044e-07,1.288283952425353e-07,7.139864544676075e-07,9.968262085841418e-07,1.0504264062665606e-06,4.404628725398317e-07,3.213973283906689e-07,-5.1346720884983e-07,8.002092112280486e-07,4.195055317614728e-07,1.3233489015562096e-06,5.983273418348524e-07,9.273301128891819e-07,5.357300289145746e-06,3.2161702482405246e-07,7.737855041804676e-07,6.908898322422904e-07
-4.182013711311238e-07,-6.222491592594793e-07,1.3089336771045297e-07,7.300667915145886e-07,1.0330541576625733e-06,1.0732931228752948e-06,4.630525216052207e-07,3.575398250468082e-07,-4.841255717695436e-07,8.281762168471491e-07,4.5819240078134186e-07,1.3652780882792505e-06,6.340264444837388e-07,9.589470893673123e-07,5.408337002814926e-06,2.559390836165633e-07,8.551057437046838e-07,7.341730417847005e-07
-3.978577956341142e-07,-6.239306218708469e-07,1.366717133957305e-07,7.518452749836558e-07,1.0490358241900915e-06,1.0770184082384674e-06,4.5636102546595923e-07,3.894143827453347e-07,-4.7366055938363444e-07,8.567133377554248e-07,4.871113459294751e-07,1.3939133429551002e-06,6.552348481068873e-07,9.84212673032233e-07,5.146344391555859e-06,2.2556986835782862e-07,9.169199661241575e-07,7.787764795718281e-07
-3.8897126252919796e-07,-6.254532713811847e-07,1.448791123584198e-07,7.774295251447512e-07,1.0515856201611266e-06,1.067306208561926e-06,4.2614236912632363e-07,4.1553539561481447e-07,-4.7584757807770073e-07,8.858585595170607e-07,5.123516057031537e-07,1.4152062945499404e-06,6.70833206185518e-07,1.0123409957943233e-06,4.471780961614143e-06,2.050007012303926e-07,9.54667908189929e-07,8.212272853941628e-07
-3.926813026256077e-07,-6.240376859993523e-07,1.5604878698414896e-07,8.051283411429926e-07,1.0512104230164407e-06,1.0532405829993608e-06,3.8420630786270705e-07,4.3767880137723166e-07,-4.80616491712522e-07,9.160882080727369e-07,5.404078513833831e-07,1.4364804586558809e-06,6.903485383422592e-07,1.0466382348789507e-06,3.4581764820067147e-06,1.6426883627879824e-07,9.703859753288293e-07,8.596321944173546e-07
-4.0710001734155475e-07,-6.17269176654895e-07,1.7198477433904573e-07,8.334112705924256e-07,1.0577996395940635e-06,1.043826874713394e-06,3.448019035864262e-07,4.595473469059418e-07,-4.774610120995198e-07,9.478633413532194e-07,5.755344848255281e-07,1.463710366019915e-06,7.207772010893986e-07,1.0817608045835666e-06,2.307715927574668e-06,1.1137998389393594e-07,9.718609088184604e-07,8.939298158481782e-07
-4.274906410563067e-07,-6.036011428341517e-07,1.9579723084660605e-07,8.620777636479282e-07,1.0785532490466887e-06,1.0458599233304146e-06,3.2097010957880596e-07,4.86007988948397e-07,-4.583016939380921e-07,9.820383641355546e-07,6.190754479955427e-07,1.49985726344695e-06,7.651937869555387e-07,1.1085956000939107e-06,1.249230490293364e-06,9.086780339710645e-08,9.701322953997023e-07,9.257778249663684e-07
-4.473723551906716e-07,-5.82248942908906e-07,2.3090188374298462e-07,8.924704595332568e-07,1.116843749443282e-06,1.0621408751299532e-06,3.201726138838186e-07,5.212046113234164e-07,-4.200404154084419e-07,1.0193144513354828e-06,6.693905234562867e-07,1.543513028549649e-06,8.21607801618031e-07,1.1204850601123925e-06,4.637179592614104e-07,1.769433294263264e-07,9.74950000933022e-07,9.57142077874026e-07
-4.6130360082846325e-07,-5.542021151845063e-07,2.7813540247776155e-07,9.25290198858444e-07,1.170732091773628e-06,1.0899210402051455e-06,3.406247631055329e-07,5.65897675652931e-07,-3.6612625026354055e-07,1.0587123308055749e-06,7.218569723538821e-07,1.5888719330528746e-06,8.830636357884575e-07,1.1174100074916773e-06,7.119877836919441e-08,3.553726568487426e-07,9.915336745742783e-07,9.886859523711603e-07
-4.6708980082156854e-07,-5.227804034077031e-07,3.3418095935101107e-07,9.590832608483813e-07,1.2328377949118119e-06,1.1219220323726863e-06,3.719612776214898e-07,6.16276225485295e-07,-3.050854003984889e-07,1.0973727665643935e-06,7.703964264938518e-07,1.628545824539756e-06,9.407831001411249e-07,1.1074530349661233e-06,1.3118670212491952e-07,5.438141107522444e-07,1.0213096130374208e-06,1.0198682958173765e-06
-4.655424133263284e-07,-4.925706916147732e-07,3.9331380524068537e-07,9.918887828862202e-07,1.2937184768149017e-06,1.1502572776749944e-06,4.001963906259471e-07,6.662535566920468e-07,-2.4649914216511896e-07,1.1321581464739795e-06,8.084680454293722e-07,1.6572843770527013e-06,9.880722613912822e-07,1.103239139691733e-06,6.101076528924107e-07,6.479419927980503e-07,1.0639273292332932e-06,1.0502212202583489e-06
-4.585922977543785e-07,-4.674029813503454e-07,4.4979073820758743e-07,1.0235824663151174e-06,1.34523030995504e-06,1.1700893128518634e-06,4.133702032121063e-07,7.104097907087525e-07,-1.9771447100238875e-07,1.1611308414436578e-06,8.379774290275894e-07,1.6734948522970736e-06,1.0216544489463715e-06,1.113715477371303e-06,1.3541169424739557e-06,6.498213370549838e-07,1.1170647382410404e-06,1.080018041366317e-06
-4.478607287184637e-07,-4.495492569353456e-07,4.987895827229966e-07,1.0561215788198615e-06,1.3823871589369134e-06,1.1807908917173533e-06,4.060535639906406e-07,7.457800423508323e-07,-1.6274872628558053e-07,1.1840078712892798e-06,8.579786715539976e-07,1.6788039598969708e-06,1.0413087033955648e-06,1.1374596696176838e-06,2.128683426325271e-06,6.204412678702805e-07,1.1755142914275408e-06,1.1103394119927138e-06
-4.3405327204887143e-07,-4.396219680275556e-07,5.374338537999142e-07,1.092649890382178e-06,1.4043545655412412e-06,1.1853036808195526e-06,3.8054674621140487e-07,7.731602877795162e-07,-1.4207856000647634e-07,1.2022521576714507e-06,8.686455516725219e-07,1.6772342925900632e-06,1.0498037159357577e-06,1.1625753903969372e-06,2.706871857313813e-06,6.443687550125276e-07,1.2328039666914936e-06,1.1432192624839632e-06
-4.1677488669857463e-07,-4.369568293802189e-07,5.662683818533297e-07,1.1366572253732546e-06,1.4146092165376287e-06,1.187213553516984e-06,3.4802100759516957e-07,7.971424411280222e-07,-1.3293560952563204e-07,1.2187106670735446e-06,8.710308806086314e-07,1.6735037056811307e-06,1.0518872148378664e-06,1.1722632576127756e-06,2.9358143778060292e-06,7.893040101453427e-07,1.284401216996431e-06,1.181318743031e-06
-3.9535106412606756e-07,-4.3892339918385375e-07,5.889438585007669e-07,1.1904117700169684e-06,1.419017737965948e-06,1.1906508537215169e-06,3.206542285813881e-07,8.236982852803254e-07,-1.309603376714427e-07,1.2362755981772704e-06,8.679627480523441e-07,1.6706038059329724e-06,1.0515602956628002e-06,1.1531590949693105e-06,2.760129067099885e-06,9.727505671014798e-07,1.3290126914365242e-06,1.2269417736425472e-06
-3.70365640435292e-07,-4.427087899556137e-07,6.10162813070485e-07,1.2531783831787614e-06,1.4227467772214027e-06,1.200392811250937e-06,3.091327633129371e-07,8.590072518288013e-07,-1.322846022782764e-07,1.256695784103613e-06,8.63283212751307e-07,1.669127242779364e-06,1.0504210607434356e-06,1.1036589332731003e-06,2.2328711409522715e-06,1.1883295632585495e-06,1.367384472629968e-06,1.28096085305096e-06
-3.4423939992088115e-07,-4.455477428409685e-07,6.342877413063546e-07,1.321150993908721e-06,1.4288043497504354e-06,1.213301793978538e-06,3.125140698568601e-07,9.03185219326756e-07,-1.3427375474570336e-07,1.2805571856415024e-06,8.606204444941617e-07,1.6689637070411042e-06,1.048614678858844e-06,1.0369550252229403e-06,1.5159622488049047e-06,1.442205871054001e-06,1.400726240149717e-06,1.3413547028905723e-06
-3.205660228560344e-07,-4.4548993602335395e-07,6.646693113343968e-07,1.3888264587820539e-06,1.4380918840371911e-06,1.2284706987760573e-06,3.2798433162502507e-07,9.54460456848774e-07,-1.3531315342037108e-07,1.3075386936033897e-06,8.65265160463941e-07,1.6709278913826162e-06,1.0461731012283884e-06,9.745173889219673e-07,8.364638714719713e-07,1.7685890420289168e-06,1.430167900219124e-06,1.4018037499699995e-06
-3.0293590719543217e-07,-4.3984041934351277e-07,7.024861576699436e-07,1.4502982936421994e-06,1.4498797677516488e-06,1.2453648216777036e-06,3.5086057987544036e-07,1.008528855569525e-06,-1.3478884413405582e-07,1.336367095496686e-06,8.796767011230308e-07,1.677201977438111e-06,1.0435371750619472e-06,9.346402102431055e-07,3.988132971358223e-07,2.1358417607007883e-06,1.4572492484319302e-06,1.4527871766998086e-06
-2.937651360615947e-07,-4.2519950975635186e-07,7.463422228260138e-07,1.5007600540472463e-06,1.4624756402440578e-06,1.261622502561351e-06,3.730182826494411e-07,1.0589746387395672e-06,-1.328059365404774e-07,1.3653509128836393e-06,9.063077856730523e-07,1.6914039134170495e-06,1.0423926549086086e-06,9.253682181824094e-07,3.147921306892019e-07,2.4085157205938075e-06,1.4842642470745956e-06,1.4856752995113024e-06
-2.9330175453088417e-07,-3.99240603593339e-07,7.937182993940016e-07,1.538416294801336e-06,1.4744968916270855e-06,1.2772838728164292e-06,3.8886720182831725e-07,1.0995844114288122e-06,-1.292932204327191e-07,1.3935097375450584e-06,9.46731941106774e-07,1.717917240682498e-06,1.046356025230046e-06,9.445692172423259e-07,5.976960311482459e-07,2.5299576773187953e-06,1.512741088485201e-06,1.4963468150499682e-06
-2.996125624323854e-07,-3.6072133673334423e-07,8.423104837445141e-07,1.5649068648441676e-06,1.485409387077164e-06,1.2927582789758374e-06,3.926447954240139e-07,1.1284388066994642e-06,-1.2358019278264426e-07,1.420696237216028e-06,9.98996808273652e-07,1.7571753697213407e-06,1.0630065103175543e-06,9.83479040522392e-07,1.1881659687614387e-06,2.3706802407163793e-06,1.5408930683850527e-06,1.4856334191859885e-06
-3.099574683995298e-07,-3.113037228415265e-07,8.899438551965614e-07,1.5834690195310125e-06,1.4948058945450725e-06,1.3077116734217937e-06,3.7974623099301524e-07,1.1455847730370986e-06,-1.1469948961911342e-07,1.4471806740810133e-06,1.0685403499629184e-06,1.8175622134212822e-06,1.096856405632517e-06,1.0312670784181575e-06,1.9610278137253308e-06,2.066546325470923e-06,1.5638873276685305e-06,1.4580191307722166e-06
-3.221088205194717e-07,-2.546249363491633e-07,9.346392202093276e-07,1.596970356538418e-06,1.5023006994608396e-06,1.3209426248838026e-06,3.473774799207831e-07,1.151838858848122e-06,-1.013059143716725e-07,1.4735555916316807e-06,1.1528438426365611e-06,1.8973391804674756e-06,1.151372258750792e-06,1.0798111802859205e-06,2.7290074876499836e-06,2.0713467240836823e-06,1.5781979869582322e-06,1.4208305983804722e-06
-3.3457081298252634e-07,-1.9607296122259738e-07,9.755255117243253e-07,1.6074533426532191e-06,1.5086316394589503e-06,1.3359213531633141e-06,3.102826887041215e-07,1.1514360608115273e-06,-8.12365352683333e-08,1.5007876407988664e-06,1.2490150881679983e-06,1.9888972278707646e-06,1.2320374110979641e-06,1.1261664620608502e-06,3.2956489057723595e-06,2.255098697141563e-06,1.5857975967501935e-06,1.3838362140166248e-06
-3.4594778953674e-07,-1.4072145722154244e-07,1.0134092182649067e-06,1.6167791888132184e-06,1.5161413995394265e-06,1.3544199454117086e-06,2.8374464830728926e-07,1.1492296064846754e-06,-5.160407764930457e-08,1.5300829501760013e-06,1.3740636049121696e-06,2.094523704529136e-06,1.3321900262781861e-06,1.1712011452627373e-06,3.5486431781945833e-06,2.0906218108422884e-06,1.594049808347373e-06,1.3586847605484072e-06
-3.540992918804384e-07,-9.17220234625427e-08,1.0510736118209677e-06,1.6280288617064235e-06,1.5289744839520125e-06,1.3802880008021387e-06,2.848388178880951e-07,1.1546795764041814e-06,-8.991867116192141e-09,1.563183622837207e-06,1.4819234631077708e-06,2.214719468743252e-06,1.451260623895521e-06,1.216908299609674e-06,3.524529214704684e-06,1.6863012934248838e-06,1.6121571962651062e-06,1.358406458711071e-06
-3.5543924883430753e-07,-4.9802383475164094e-08,1.0937955903549164e-06,1.6471757033476701e-06,1.5533261462477144e-06,1.4216384658245795e-06,3.318598264841649e-07,1.1751264267711593e-06,5.068186087921263e-08,1.6031973323194494e-06,1.584097696658686e-06,2.3552833801160287e-06,1.5909569693809304e-06,1.2650031615881853e-06,3.4022063521911393e-06,1.1277091613794018e-06,1.6471516986313457e-06,1.3961327228082024e-06
-3.4530355835086216e-07,-1.280820549393868e-08,1.1486764669520499e-06,1.6831617070485646e-06,1.5962823355922317e-06,1.485002165224746e-06,4.4399065978460313e-07,1.220485127734602e-06,1.3131325822242136e-07,1.6569807632577212e-06,1.6950195933297903e-06,2.5178865669415684e-06,1.743801479729468e-06,1.3161483843439324e-06,3.430288187517653e-06,7.077118582401457e-07,1.7016006275812698e-06,1.4818999886396557e-06
-3.199043103873431e-07,2.2695780642906957e-08,1.2223413767052552e-06,1.7455626543479668e-06,1.6625972490998176e-06,1.5879041648220005e-06,6.243375248732691e-07,1.3017720478646092e-06,2.3269779972100754e-07,1.72621775339533e-06,1.8455252327267708e-06,2.71667209270768e-06,1.872244033541304e-06,1.3692416955952368e-06,3.8091128409920074e-06,9.219521808543403e-07,1.774760535409479e-06,1.6193275105984029e-06
-2.7861294602239367e-07,6.026491796716486e-08,1.3192308369348769e-06,1.8416326719601638e-06,1.7509459380805804e-06,1.7356209664851864e-06,8.588724058621408e-07,1.4248704350317958e-06,3.559443512706045e-07,1.8136086524312553e-06,1.969046165008187e-06,2.8665354337230118e-06,1.963308893278054e-06,1.422258631013674e-06,4.577107977200358e-06,1.3501206787644386e-06,1.8663191787791328e-06,1.8106006261026422e-06
-2.2514066917443257e-07,1.0001445493003155e-07,1.4413043436623034e-06,1.9742007863301258e-06,1.8522679331246621e-06,1.889054695350849e-06,1.1135164006020924e-06,1.5737618762369872e-06,4.84694468487499e-07,1.91939306592189e-06,2.006723556356047e-06,2.933143437263598e-06,1.99517504925025e-06,1.4743531480131446e-06,5.573942819882126e-06,1.7582335593643572e-06,1.9783602074802644e-06,2.0418101340138856e-06
-1.6731938079879285e-07,1.3960963234163402e-07,1.5874556995413364e-06,2.140239582144864e-06,1.9506195915905912e-06,2.0333469834971668e-06,1.3300839934452728e-06,1.7506281270477954e-06,6.02811525101657e-07,2.038341293059299e-06,1.9232164804648e-06,2.8628692797707536e-06,1.8460728130495266e-06,1.5263719582637614e-06,6.514701155355412e-06,1.9989652174633153e-06,2.1133790219215274e-06,2.3050447215647947e-06
-1.154931226473204e-07,1.7553495343278487e-07,1.7524604639542148e-06,2.330432654676364e-06,2.026691590195396e-06,2.155741886203326e-06,1.433618705938035e-06,1.938516025773785e-06,7.004172770483481e-07,2.163643291903587e-06,1.7060711902434827e-06,2.750980259947338e-06,1.7850362877142881e-06,1.5794954251004769e-06,7.131057172032928e-06,2.4304501031786827e-06,2.27104388477838e-06,2.5952907501492947e-06
-7.977282069413264e-08,2.0215989341034288e-07,1.926909422345482e-06,2.5304036363374863e-06,2.063663771546069e-06,2.167856664747547e-06,1.4487711168453334e-06,2.0887206539250196e-06,6.924418114298909e-07,2.2865339406931897e-06,1.57894584392831e-06,2.690128882886456e-06,1.755153042629124e-06,1.6339401581288264e-06,7.3003723650512515e-06,3.4474478704233357e-06,2.446488278710806e-06,2.904067861993016e-06
-6.746481641210339e-08,2.0995755971852555e-07,2.098162457958395e-06,2.7228512166924213e-06,2.052692362770715e-06,2.0841377430559096e-06,1.3741567463355948e-06,2.1683120866872957e-06,6.530947734296936e-07,2.3984374877770057e-06,1.5074922081996737e-06,2.6569638628746883e-06,1.7177618674025661e-06,1.6880226303278677e-06,7.097162279283576e-06,4.447822378358739e-06,2.6303908564158666e-06,3.2283284851077036e-06
-8.184996681821439e-08,1.9961698635844524e-07,2.2520457775590326e-06,2.8928196248413177e-06,1.9952836230814598e-06,2.0327368150699843e-06,1.3153725758031567e-06,2.150599938088879e-06,6.120983786366643e-07,2.471900979283293e-06,1.469333133059737e-06,2.4121023643160435e-06,1.6364902090491295e-06,1.7371994025810614e-06,6.733853709475337e-06,5.17922139045764e-06,2.8106549895095993e-06,3.546001271554187e-06
-1.2222424148356923e-07,1.7285492660242973e-07,2.37600799675541e-06,3.0215983444861477e-06,1.90221696946196e-06,2.0328555527750353e-06,1.2627247544111833e-06,2.1166929662035756e-06,5.460000595536949e-07,2.527328674591754e-06,1.3820123557196077e-06,2.154776674091998e-06,1.4474322671475486e-06,1.7741285864933728e-06,6.425148295989526e-06,5.877342074312608e-06,2.9750183912827275e-06,3.835706171746824e-06
-1.8478951933186217e-07,1.2961048123173324e-07,2.4626758447125074e-06,3.075557742215563e-06,1.7896997999727576e-06,1.966581369305379e-06,1.1507194863993252e-06,2.0919939299759217e-06,4.1043201100529967e-07,2.5615641372100913e-06,1.15222547137884e-06,1.8912469297903746e-06,1.2403882348129698e-06,1.790540766724664e-06,6.28564734267242e-06,6.241636580573629e-06,3.1126411595750883e-06,4.028944900687192e-06
-2.642599422049503e-07,7.61084458932308e-08,2.5112166070190214e-06,3.1325788719961815e-06,1.673605124070745e-06,1.9052946383928357e-06,1.0937870329627965e-06,2.0962382090892196e-06,2.932465755969423e-07,2.5663586404414494e-06,8.956410135944245e-07,1.5961857057716966e-06,1.0172642963255466e-06,1.7802066698491402e-06,6.336655481980177e-06,6.502611503443692e-06,3.2144818516989604e-06,4.120402800435572e-06
-3.555083520113236e-07,9.171271267152736e-10,2.5266312923635848e-06,3.106239171160616e-06,1.564899108135904e-06,1.757760575180673e-06,9.372681545142662e-07,2.1341960490431388e-06,2.1240847722025727e-07,2.585562186190408e-06,7.127168476819554e-07,1.4437281844118096e-06,7.817439416292825e-07,1.7415979362434806e-06,6.567250867410734e-06,6.507695360953213e-06,3.274780250766035e-06,4.15448568896161e-06
-4.5405172687484414e-07,-7.347767380138674e-08,2.518750029747852e-06,3.0597550591800233e-06,1.4686277786139176e-06,1.5811404163207598e-06,7.465433488500257e-07,2.186162524622356e-06,1.506659032210291e-07,2.5696696626154376e-06,5.124775646764912e-07,1.3745740791888625e-06,6.949147777828349e-07,1.6783315286628443e-06,6.959267007548391e-06,6.150420781649429e-06,3.2937797845287633e-06,4.195072636881391e-06
-5.555312082397617e-07,-1.005394393174688e-07,2.500115548523481e-06,2.998205013966039e-06,1.3855168985919505e-06,1.4045951624237787e-06,5.671561431751146e-07,2.1973860625661212e-06,1.0736677727769594e-07,2.5251499338057667e-06,3.292945071585194e-07,1.3628715439398622e-06,6.727857928401858e-07,1.5971259325453916e-06,7.471093354792291e-06,5.49881382014672e-06,3.278919393925537e-06,4.238424430322321e-06
-6.554020764783339e-07,-6.885218459631942e-08,2.4818076243329426e-06,2.937020021626688e-06,1.3138402539084424e-06,1.203045641373794e-06,3.6181495710773043e-07,2.1366112706824456e-06,7.510486206555536e-08,2.474321347643577e-06,2.74719857630597e-07,1.3607832304889416e-06,6.180459282046461e-07,1.5063651459666823e-06,8.031555587999718e-06,4.799315264103281e-06,3.2435101842150685e-06,4.136713800762896e-06
-7.488504506642764e-07,5.9412647627309524e-09,2.469895003850191e-06,2.887848664460775e-06,1.2514635784049228e-06,1.042630944284454e-06,2.3201353269324366e-07,2.0492243040277114e-06,4.7645938465297607e-08,2.3908634567981548e-06,3.073068856010424e-07,1.3730188675082153e-06,5.557645483191366e-07,1.4162627020317653e-06,8.568371000519414e-06,4.277745100273777e-06,3.203765512969552e-06,4.003953278225113e-06
-8.30631125215586e-07,9.759480255310713e-08,2.4649651605360032e-06,2.8573838528955656e-06,1.197618806510118e-06,9.341785066024533e-07,1.6410781555055714e-07,1.9433309088507484e-06,2.247029577615167e-08,2.3225996270203466e-06,3.3281134611059284e-07,1.3940609853128984e-06,5.04862430639496e-07,1.3374807084152177e-06,9.044630723636727e-06,3.9553692824415655e-06,3.174287484871622e-06,3.8968008968824275e-06
-8.956109466809158e-07,1.5410464799533794e-07,2.4634117496121966e-06,2.8475415410149976e-06,1.1525368798593798e-06,8.642541241342569e-07,1.33978200049482e-07,1.8441772899840396e-06,4.848320024442923e-10,2.2755915233413286e-06,3.611502611953359e-07,1.408743702515195e-06,4.5759081698696555e-07,1.2777464653642296e-06,9.463132262544447e-06,3.813083309469511e-06,3.1635335973218718e-06,3.726560939110327e-06
-9.40413286064966e-07,1.826947561362086e-07,2.4592613121918663e-06,2.856041911727438e-06,1.1155447378041283e-06,7.935391769671083e-07,9.65910818179255e-08,1.7666702240687193e-06,-1.5952445744415868e-08,2.2425437314749657e-06,4.0544689598129067e-07,1.413876790143221e-06,4.149390932038375e-07,1.2397160811546792e-06,9.833065314853512e-06,3.678515097433096e-06,3.1727565378138993e-06,3.599225132302954e-06
-9.64970861422905e-07,2.0424768065227609e-07,2.4473180956010295e-06,2.8780044005413202e-06,1.0847600813131054e-06,7.521045665500992e-07,7.600275367219563e-08,1.7154864883494418e-06,-2.4388532798768948e-08,2.2349328802085643e-06,4.167725305286441e-07,1.4081434584966154e-06,3.825036225204388e-07,1.220829414075457e-06,1.01310511749745e-05,4.056760392526605e-06,3.1984032264718755e-06,3.5156849100076895e-06
-9.72872248052661e-07,2.1012477183325635e-07,2.4263285349410302e-06,2.9078558992534263e-06,1.0589563450003073e-06,7.401143630228084e-07,7.855419359308775e-08,1.67721760643296e-06,-2.2756414013724675e-08,2.2400024563672677e-06,4.1956532402536056e-07,1.3938113738803378e-06,3.647037804803452e-07,1.2133696583874519e-06,1.0288083141136674e-05,4.6490297570617116e-06,3.233724379798888e-06,3.448826340344357e-06
-9.708429321290592e-07,2.1860307541067238e-07,2.399128788799431e-06,2.93966843757343e-06,1.0389726748559462e-06,7.439561435275424e-07,9.187903493256548e-08,1.6460703585795582e-06,-9.815305457987995e-09,2.252608233780726e-06,4.346447809584569e-07,1.37591176254031e-06,3.6378054116232057e-07,1.2055714562619263e-06,1.0204538718471016e-05,5.099822024229151e-06,3.268297784182334e-06,3.419665176173831e-06
-9.673548764185472e-07,2.1505359749485982e-07,2.370195996764088e-06,2.966576304639598e-06,1.028066238030755e-06,7.672078098845941e-07,1.237968021352911e-07,1.6167292512880389e-06,1.5056904349996048e-08,2.2678398811437765e-06,4.560462712603292e-07,1.3617520252619093e-06,3.7948973265065e-07,1.1855604466861268e-06,9.787791172679037e-06,5.499959345429044e-06,3.288938199730108e-06,3.395682236395415e-06
-9.70080567572314e-07,1.9825361275022994e-07,2.3434701867987755e-06,2.9813426852527634e-06,1.032133645183396e-06,7.898136972467361e-07,1.5295707341384398e-07,1.6060155275352016e-06,5.3120984173321534e-08,2.27672768126723e-06,4.960433708065856e-07,1.3609567207892974e-06,4.1119556563640453e-07,1.1464439139437024e-06,9.009203658476854e-06,5.709234085243042e-06,3.283465742427652e-06,3.365714800285004e-06
-9.83314130819953e-07,1.7752106467186676e-07,2.3209595413307397e-06,2.9776992408942395e-06,1.0586364406430504e-06,8.002620408992741e-07,1.768683934916903e-07,1.5981145660463697e-06,1.0684236645688558e-07,2.2725447852052136e-06,5.482093661903639e-07,1.3838918535315407e-06,4.5938145541116987e-07,1.0897778655948592e-06,7.950804360909125e-06,5.6815538951249984e-06,3.2451162015882494e-06,3.32284594395976e-06
-1.0068685340767342e-06,1.6389126957758363e-07,2.3017588031042523e-06,2.9512328413346015e-06,1.1131976776772275e-06,8.004125338382639e-07,1.9935201427591838e-07,1.5763359809869337e-06,1.7852136901766707e-07,2.251442899944872e-06,6.180044082178671e-07,1.4405851827343033e-06,5.250664071216111e-07,1.0270209554608992e-06,6.798965073574612e-06,5.474087705373703e-06,3.1763126265626495e-06,3.253570591921544e-06
-1.0363595373702243e-06,1.634915900746974e-07,2.2829421593724496e-06,2.9006515512052887e-06,1.1962910860490707e-06,8.039020360422341e-07,2.3205934139513025e-07,1.5457958110929215e-06,2.68267732132156e-07,2.213333122387004e-06,7.129380716641388e-07,1.5310952359901352e-06,6.061941067243166e-07,9.784359386946106e-07,5.786894356061705e-06,5.113193261737117e-06,3.0904292725760425e-06,3.152960119732704e-06
-1.0642375255048805e-06,1.7703943907988307e-07,2.2621981322045073e-06,2.829640959142979e-06,1.3023225085609875e-06,8.040346842985202e-07,2.639639208145303e-07,1.4995465154092222e-06,3.7257795983100743e-07,2.1621035344707317e-06,8.273792968036443e-07,1.6409297120303444e-06,7.020805748270761e-07,9.670210057717631e-07,5.129822240424597e-06,4.726291533768334e-06,3.007848206223624e-06,3.026022990336844e-06
-1.0820530783835486e-06,2.0361269441254394e-07,2.2390636120131976e-06,2.7468884239838855e-06,1.4203264812729138e-06,8.041763892633743e-07,2.9128448741544136e-07,1.4488192561411248e-06,4.834637958332834e-07,2.104224433552541e-06,9.493805387369936e-07,1.7553232978478182e-06,8.021054863292124e-07,1.0084087786637262e-06,4.9723885597953e-06,4.3945769982381145e-06,2.9463330609884524e-06,2.885250652921108e-06
-1.0836707630741101e-06,2.363081444249978e-07,2.2138420403702363e-06,2.663204128110096e-06,1.5354280318188563e-06,8.077596994884193e-07,3.1307234616289256e-07,1.4051267298166088e-06,5.889093464630975e-07,2.0465433759652785e-06,1.059691612356042e-06,1.8514075129694213e-06,8.953894219133682e-07,1.103362304950616e-06,5.337819359183443e-06,4.157407066922258e-06,2.9126442075562108e-06,2.7460206952025085e-06
-1.0674153900149377e-06,2.7106755811930744e-07,2.1867080073417724e-06,2.5879654736138812e-06,1.6320425812304937e-06,8.091072635412917e-07,3.217471728022162e-07,1.3715520545880167e-06,6.757797503035287e-07,1.9946594770234586e-06,1.1360917600940022e-06,1.909363006912503e-06,9.69634662026962e-07,1.2373305400335199e-06,6.08973376914238e-06,4.0369468612538955e-06,2.9009664202935143e-06,2.6234366290559215e-06
-1.0360904361031645e-06,3.001592971415072e-07,2.157677841201726e-06,2.5265410568700266e-06,1.6980181616886547e-06,8.073450883785192e-07,3.1869478918598976e-07,1.3443292927584318e-06,7.339333658655174e-07,1.9516278971837324e-06,1.1705201118152477e-06,1.9219185715135212e-06,1.0143450066514564e-06,1.3847505978203058e-06,6.944481719588247e-06,4.017769389142664e-06,2.896814852474613e-06,2.5295738979963885e-06
-9.958032273751422e-07,3.1655715377980825e-07,2.1259743598285866e-06,2.478569820520867e-06,1.7276917384602894e-06,7.984698416987645e-07,3.035145983109958e-07,1.3222378820927095e-06,7.592163777900994e-07,1.916875713550174e-06,1.161199728687516e-06,1.8906574934804225e-06,1.0269747276436281e-06,1.5154348467201327e-06,7.548239693710119e-06,4.054294499229684e-06,2.883300243238902e-06,2.4693654086330283e-06
-9.543626404773657e-07,3.147940458781266e-07,2.089605628451222e-06,2.438011702732742e-06,1.7232688046456574e-06,7.785263062687798e-07,2.7411354574674674e-07,1.299259158419313e-06,7.550114982471081e-07,1.8866113033580174e-06,1.112658535705982e-06,1.8276327743807025e-06,1.0112422615979219e-06,1.6033088802839542e-06,7.5992401120529496e-06,4.081799170947561e-06,2.848351288330349e-06,2.437159749566437e-06
-9.191810661946299e-07,2.9572389015732306e-07,2.0469089260916954e-06,2.395853545238011e-06,1.695338711571723e-06,7.480733950945315e-07,2.3101478204487013e-07,1.2666416383921287e-06,7.327390529279204e-07,1.8560786942415148e-06,1.048860864185905e-06,1.7548132981681099e-06,9.808954225079228e-07,1.6350037044899617e-06,6.973481679181835e-06,4.037876913986484e-06,2.7898867971391544e-06,2.4169192366281e-06
-8.952942574275688e-07,2.6531156270150177e-07,1.9984351913432305e-06,2.343407442446699e-06,1.66123427266725e-06,7.12609785179074e-07,1.7962982317637854e-07,1.2212335938309737e-06,7.100190581103075e-07,1.821685648092689e-06,9.903140906704005e-07,1.6998324395476964e-06,9.556832612684986e-07,1.6128391352894386e-06,5.790256754785884e-06,3.883122222991585e-06,2.714631716215312e-06,2.38639359355315e-06
-8.84455114284324e-07,2.3214531283861843e-07,1.946630313141752e-06,2.274043623917011e-06,1.640213607374132e-06,6.81701595173877e-07,1.309461268493604e-07,1.1620827357648085e-06,7.056721928838404e-07,1.7817259659499592e-06,9.635753460449708e-07,1.686121077785019e-06,9.573696690437144e-07,1.5514726277489396e-06,4.367559426750384e-06,3.6483517937248718e-06,2.6310796201691333e-06,2.3239113385698907e-06
-8.847782968137114e-07,2.071488223082363e-07,1.8943395631660113e-06,2.1845436526272816e-06,1.6481900806325862e-06,6.67018401524802e-07,9.950301730888782e-08,1.0927164734042247e-06,7.33918272019745e-07,1.7368025678211306e-06,1.0646943485982469e-06,1.7303635860089928e-06,1.0012317387949578e-06,1.4726625260667685e-06,3.080124255586645e-06,3.4006750056169443e-06,2.542722803243409e-06,2.2156361025857444e-06
-8.904476353689259e-07,1.9997831036911317e-07,1.8442529076464583e-06,2.077146555298063e-06,1.6944494693446175e-06,6.804553157813275e-07,1.0026502724783104e-07,1.0215290086284697e-06,8.00750184518762e-07,1.6903337079263198e-06,1.1860312537826143e-06,1.8354716321750932e-06,1.0928848970256798e-06,1.3999579608648832e-06,2.202177941802776e-06,3.198739736605053e-06,2.4466873681981758e-06,2.0603397942686896e-06
-8.926751150110653e-07,2.1747264795652924e-07,1.7985898415498359e-06,1.960016125130765e-06,1.779604794199331e-06,7.310333456787023e-07,1.4377882475890124e-07,9.592470533459187e-07,9.027099309850987e-07,1.6476669492894864e-06,1.2936070890004057e-06,1.9929768859688135e-06,1.2256441970937296e-06,1.3515492630581202e-06,1.8458983399164579e-06,3.0928030706243926e-06,2.33781799278893e-06,1.869930845361223e-06
-8.829385208351347e-07,2.610512551760357e-07,1.7581127072980558e-06,1.8445100693928455e-06,1.8940653641950991e-06,8.205831249928317e-07,2.3136062725784194e-07,9.155203914032283e-07,1.0273165940904309e-06,1.613617763773974e-06,1.4888674819302517e-06,2.1847811428145554e-06,1.379988858558509e-06,1.3329165574563166e-06,1.996848661236552e-06,3.091723939615968e-06,2.2148755953541985e-06,1.6663587426196113e-06
-8.569545692538717e-07,3.250737579633139e-07,1.7222224701753748e-06,1.7414122606078977e-06,2.0193360546395412e-06,9.438743131192992e-07,3.5478938181194577e-07,8.959434985373799e-07,1.1558722419739778e-06,1.5905085901110025e-06,1.7111186555944763e-06,2.358203226402321e-06,1.5305599517653047e-06,1.3352345436669162e-06,2.5660802715796115e-06,3.1955725210306805e-06,2.084647006163216e-06,1.4761792280726674e-06
-8.166812658626935e-07,3.9887827423218726e-07,1.691090257311759e-06,1.6583160408312119e-06,2.133326896671639e-06,1.0804973219024592e-06,5.003682580364069e-07,9.011424312058409e-07,1.268650538687924e-06,1.5776733244614192e-06,1.8937771922718006e-06,2.4903569074939756e-06,1.6726486202794536e-06,1.3421000907238652e-06,3.4423483304728763e-06,3.4040535723383624e-06,1.9611655856436306e-06,1.323888397234605e-06
-7.695563744779504e-07,4.708974051934849e-07,1.667476009343998e-06,1.597923252804913e-06,2.2168007772451833e-06,1.210959979958306e-06,6.524611136324403e-07,9.270483393487385e-07,1.3499872099488064e-06,1.571732487186851e-06,2.012711162623061e-06,2.611172763248833e-06,1.769418249757106e-06,1.3401675899819322e-06,4.479452883257547e-06,3.66840053654066e-06,1.8611680493282656e-06,1.2263615368826954e-06
-7.255370918164045e-07,5.325140918266022e-07,1.6563520255887636e-06,1.5575536780353162e-06,2.2578409124137108e-06,1.3191833370283642e-06,7.949338136008989e-07,9.65624585372632e-07,1.391264338789645e-06,1.56762371831686e-06,2.0753365488100035e-06,2.6789850396272446e-06,1.8374442316200116e-06,1.3270246985274072e-06,5.496180231977976e-06,3.958502133237493e-06,1.7992560406318659e-06,1.1910927962908299e-06
-6.927819524850822e-07,5.799405708573891e-07,1.6630363170842573e-06,1.5312178359766149e-06,2.254632562293627e-06,1.3732607655144318e-06,9.128707494902408e-07,1.0067250455972088e-06,1.3918772224339637e-06,1.5605502361444035e-06,2.045868826312875e-06,2.6967427318895528e-06,1.8672370569270744e-06,1.3118700432822788e-06,6.314296851557394e-06,4.263616813752812e-06,1.7838591435917816e-06,1.2176268596740605e-06
-6.734624252890364e-07,6.120385239128069e-07,1.6901923819397076e-06,1.513298957034208e-06,2.2158236860261663e-06,1.35531081391457e-06,9.947250474890742e-07,1.0405181727333106e-06,1.3580245444223493e-06,1.5475943871028845e-06,1.9750979571392904e-06,2.7034083806758274e-06,1.8663293412422398e-06,1.308853565685131e-06,6.807706414417558e-06,4.5206650355482345e-06,1.8133049289520629e-06,1.2990255242021783e-06
-6.619566832274312e-07,6.302986131564932e-07,1.7338345553592315e-06,1.5011628420792247e-06,2.1568231323361826e-06,1.3829887256096393e-06,1.033406840573263e-06,1.0592435611962547e-06,1.2990612418172317e-06,1.528045584502154e-06,1.8459698931516584e-06,2.681457423451135e-06,1.8586640450750249e-06,1.328603803674209e-06,6.940263308779995e-06,4.698722862621069e-06,1.874074342071154e-06,1.422917240412914e-06
-6.46656798206807e-07,6.339306947880095e-07,1.7815713874644672e-06,1.496064188852432e-06,2.093664946608415e-06,1.2973433481060506e-06,1.027366509625486e-06,1.0586855065646248e-06,1.2235425331419753e-06,1.5033267329689482e-06,1.6980818013120303e-06,2.6154553401759275e-06,1.8414033198495333e-06,1.3746518008009974e-06,6.766464880268641e-06,4.7883112105112794e-06,1.944775323370832e-06,1.5742447757141847e-06
-6.14664608688129e-07,6.187191363629069e-07,1.8166282449590546e-06,1.5030274883690197e-06,2.038530293229299e-06,1.165415781749979e-06,9.8258491876205e-07,1.039742539580164e-06,1.1376930238254435e-06,1.4771337653024858e-06,1.6423740312578894e-06,2.556187464639965e-06,1.8148208823935852e-06,1.4453434950381536e-06,6.409639321321456e-06,4.774848224077427e-06,2.005025985016512e-06,1.7393990134877488e-06
-5.586844020745665e-07,5.816702037411049e-07,1.8256678494241423e-06,1.5290560980996967e-06,1.998130508892885e-06,1.0563224115944056e-06,9.126874401814204e-07,1.008625278014859e-06,1.046118307174944e-06,1.4547978991831058e-06,1.60454699457843e-06,2.4448135414351295e-06,1.7297648740818136e-06,1.5369736800719602e-06,6.0094331629763565e-06,4.664270220257057e-06,2.0441342909825812e-06,1.909102541913199e-06
-4.785128265670337e-07,5.197340994202435e-07,1.8049980153886765e-06,1.5796972513344865e-06,1.973458605021658e-06,9.615598459884772e-07,8.35068761526634e-07,9.747196322982628e-07,9.528458274727882e-07,1.441615480398755e-06,1.5313789956578107e-06,2.1813239940349598e-06,1.6264665597543766e-06,1.64566977198522e-06,5.663874704835554e-06,4.546928049867325e-06,2.0653731290196626e-06,2.0791375715306883e-06
-3.8590299305551315e-07,4.38014448738827e-07,1.762454242710365e-06,1.6564296105200217e-06,1.9608615993568633e-06,8.790383983166099e-07,7.656009430718916e-07,9.478311068477837e-07,8.61930858903647e-07,1.4414779581415663e-06,1.4699895369785334e-06,1.8944456490717563e-06,1.4622260191226355e-06,1.7677856637367357e-06,5.394143022905427e-06,4.396308448758173e-06,2.0837958179961406e-06,2.249890405741753e-06
-2.9555086904947556e-07,3.488863304632844e-07,1.7149458808199964e-06,1.7564641458089282e-06,1.954718552948046e-06,8.193639467765071e-07,7.150666597303589e-07,9.358277907798652e-07,7.77614716253134e-07,1.4562859602311145e-06,1.3314275790042054e-06,1.583462963886076e-06,1.2761076107536118e-06,1.8983346957120151e-06,5.166573213412667e-06,4.137666950241419e-06,2.117237767155878e-06,2.4250167241251277e-06
-2.0879935781791885e-07,2.811958468167221e-07,1.682114721059576e-06,1.8737864691625775e-06,1.950520010141722e-06,7.754392374928895e-07,6.874318769695233e-07,9.422382152325566e-07,7.038528426742882e-07,1.485466062852848e-06,1.0780255053926228e-06,1.2846275153759377e-06,1.0945829536829292e-06,2.02918400118097e-06,4.9600879554627474e-06,3.850737037336649e-06,2.175286866293545e-06,2.6091931147878048e-06
-1.7822035628260416e-07,2.581757518462351e-07,1.6786283167820377e-06,2.0004005572808454e-06,1.9470085267642333e-06,7.384506889368369e-07,6.799489269668685e-07,9.647142040794573e-07,6.437671308044852e-07,1.5259228896712588e-06,8.580297195578002e-07,1.122373852906593e-06,8.979097759367263e-07,2.1506269196418715e-06,4.811711187551522e-06,3.589270496820644e-06,2.2544713669786266e-06,2.805792274531848e-06
-1.6314222147701664e-07,2.935454704612838e-07,1.709419104987213e-06,2.128014581647868e-06,1.9470651840132716e-06,7.016736566484101e-07,6.85959112638608e-07,9.961277549092178e-07,5.99792557292112e-07,1.5729324914223677e-06,6.24106432442959e-07,1.0176981705881997e-06,7.14407680696852e-07,2.255532428671651e-06,4.784333997503848e-06,3.4485477683197733e-06,2.3418831865773412e-06,3.0146252562494877e-06
-1.8730757205135813e-07,3.3711325335265256e-07,1.7695671217431927e-06,2.249551913985999e-06,1.956665172169123e-06,6.643753154528299e-07,6.9871441413068e-07,1.028345880238602e-06,5.739509904872099e-07,1.6217235880714372e-06,4.981427674563391e-07,9.897840073058974e-07,5.508713052384048e-07,2.3407546658555586e-06,4.905712833119249e-06,3.5082986710041673e-06,2.421800429689857e-06,3.229476682435497e-06
-2.0865534902307247e-07,3.472919224405042e-07,1.8472771099252594e-06,2.359458449996788e-06,1.9819237015869226e-06,6.318974987439655e-07,7.134968930780559e-07,1.0552052008964513e-06,5.675802543854451e-07,1.6685032694191364e-06,5.181753738384161e-07,1.0436118386145364e-06,4.50276721070559e-07,2.403830453015691e-06,5.133742868018224e-06,3.755093349350372e-06,2.4809654403321814e-06,3.4375780976537256e-06
-2.392324428694409e-07,3.5549731412046314e-07,1.928367800189382e-06,2.4534960725389802e-06,2.026574996094748e-06,6.128119413171445e-07,7.285346748336812e-07,1.0742018984697242e-06,5.811054976517175e-07,1.7109332738731301e-06,3.7769089165497097e-07,9.071106770666022e-07,4.347678601944281e-07,2.439361730280477e-06,5.40388661285474e-06,4.072664510120016e-06,2.5123255204146488e-06,3.6230601646316947e-06
-2.711515568601049e-07,4.209902229105553e-07,2.0007225829106846e-06,2.529001484552638e-06,2.0915064159439694e-06,6.153246731653297e-07,7.455966021778344e-07,1.0867308532206554e-06,6.140865469483461e-07,1.7481922353628638e-06,2.549029570954569e-07,8.339336343702592e-07,5.369634950236412e-07,2.439865904503349e-06,5.713256055510168e-06,4.403039815631226e-06,2.5169364568960763e-06,3.7719689634197288e-06
-2.94827873275226e-07,4.841964956865052e-07,2.056655067517627e-06,2.585201350762752e-06,2.1748597089461206e-06,6.441892173540281e-07,7.690005494968028e-07,1.0966120220061327e-06,6.649007230170497e-07,1.780387296595448e-06,1.3677378791421176e-07,8.792036141582881e-07,6.084826546862106e-07,2.4008802077316015e-06,6.132014775953204e-06,4.7673704025857295e-06,2.5033624581253833e-06,3.875468013957607e-06
-3.091706531278281e-07,5.593883206954273e-07,2.093150583957113e-06,2.623517967794706e-06,2.2719676398627145e-06,6.995052996888613e-07,8.03984643246457e-07,1.108779340338335e-06,7.303477732589918e-07,1.8081662799538593e-06,5.166379749729075e-08,1.0469536479529802e-06,6.091244766998871e-07,2.327168699573391e-06,6.757394269221822e-06,5.129767500523852e-06,2.485363983274377e-06,3.931312561496433e-06
-3.1348566459146694e-07,6.504285891171647e-07,2.111544521808806e-06,2.648279578049155e-06,2.37614822888792e-06,7.783232875835753e-07,8.569444010972088e-07,1.1292816876685111e-06,8.05971499549103e-07,1.8332300337702993e-06,4.562109688303154e-08,1.2594980825080656e-06,7.15465905503979e-07,2.2367924677965263e-06,7.631097701735312e-06,5.471768624261068e-06,2.4781684230575476e-06,3.9443373514740294e-06
-3.067311579111398e-07,7.328081300463935e-07,2.1164069829575236e-06,2.6665928200581537e-06,2.479952212392515e-06,8.771810555623605e-07,9.355900741990431e-07,1.1651673796960542e-06,8.865327811161176e-07,1.858197940053157e-06,1.7459191496669116e-07,1.4903836229811037e-06,8.773540569366681e-07,2.159233839203043e-06,8.700778608018355e-06,5.86483450062037e-06,2.4933174502586757e-06,3.925360034378054e-06
-2.872713201098314e-07,8.078137561694151e-07,2.113012473377704e-06,2.686013769159152e-06,2.5759041067793817e-06,9.928588529651725e-07,1.045718880864378e-06,1.2223748301009114e-06,9.659490846947645e-07,1.885324908463514e-06,3.305252442811671e-07,1.7280531933106705e-06,9.988275792251761e-07,2.1261851256122793e-06,9.840639869303658e-06,6.392549953848892e-06,2.5347314024705847e-06,3.889041906614707e-06
-2.5420928270085665e-07,8.506107728043904e-07,2.1053559457692524e-06,2.7113740404940233e-06,2.6575799044321826e-06,1.1213778673219287e-06,1.1869451500627693e-06,1.302921687095223e-06,1.0378204900941406e-06,1.9153725956983424e-06,4.7641383373069604e-07,1.8850700560928263e-06,1.115631039482014e-06,2.1597962700363003e-06,1.089247151705612e-05,6.9412655173669975e-06,2.598470618958394e-06,3.85160195534346e-06
-2.0903085254032886e-07,8.489282204570089e-07,2.096125599705558e-06,2.7427924274331286e-06,2.7218441254766765e-06,1.2568327085547088e-06,1.351508181461223e-06,1.403048289532908e-06,1.0974856613367221e-06,1.9471884753694457e-06,6.000355968818696e-07,1.9305333861904085e-06,1.1839575553078824e-06,2.264859234461457e-06,1.1717832451456842e-05,7.466804692313271e-06,2.674392364932625e-06,3.827078623242784e-06
-1.5679596805205088e-07,8.647691793009475e-07,2.0867108487266317e-06,2.774961071201203e-06,2.7701905062259006e-06,1.3906317347108548e-06,1.5255036153196346e-06,1.5122067775926042e-06,1.1441610354181545e-06,1.9774016714196342e-06,6.447599102770446e-07,1.9218568692919383e-06,1.1970857292653557e-06,2.427878388355655e-06,1.2152726034725767e-05,7.79251244264679e-06,2.747892319351925e-06,3.8216568747229835e-06
-1.0613441017341419e-07,8.736476027601238e-07,2.0763715956497883e-06,2.7980367321415417e-06,2.8074108145444864e-06,1.51176891181723e-06,1.6908715837688295e-06,1.61460471211743e-06,1.181335847628487e-06,2.000616329487527e-06,6.392970665732314e-07,1.883533185952561e-06,1.1893477793055328e-06,2.6223425234714014e-06,1.2068342075721177e-05,7.717353429902932e-06,2.803938798357094e-06,3.829891571683374e-06
-6.682712491704003e-08,8.350408049629713e-07,2.0630047782183174e-06,2.8016994482148104e-06,2.839262356928456e-06,1.6093551101531849e-06,1.8294355279992518e-06,1.6943110130082078e-06,1.2153328413876796e-06,2.0113821254949105e-06,6.321032505902257e-07,1.8516232516753287e-06,1.1668706286337792e-06,2.8170339314152903e-06,1.1460385041478748e-05,7.76797920635168e-06,2.8336381249605295e-06,3.836964504170924e-06
-4.570034546781087e-08,7.965121636291724e-07,2.0457999860638994e-06,2.781113959747354e-06,2.870812331473929e-06,1.6765472577909337e-06,1.9284204590467785e-06,1.742488899709404e-06,1.2525686999661696e-06,2.006901271749499e-06,6.402166932719426e-07,1.8469027672365558e-06,1.1541469476923328e-06,2.9835511425982273e-06,1.0418792966699855e-05,7.900375850638222e-06,2.8379712348730502e-06,3.826110850793531e-06
-4.3972979705464356e-08,7.441130412125561e-07,2.0262917688981427e-06,2.7401127941876532e-06,2.904738883674668e-06,1.7127470658786043e-06,1.9835047199910273e-06,1.7607683353381728e-06,1.2962181720072788e-06,1.9882432393477614e-06,6.487039195681793e-07,1.8653199332923409e-06,1.161101561389031e-06,3.101784129964976e-06,9.169710960296799e-06,8.022205695646563e-06,2.8255745301681625e-06,3.7870983450749543e-06
-5.763135313411883e-08,6.815909225288733e-07,2.0069250891251403e-06,2.68954227936339e-06,2.9396425416784647e-06,1.7229160257558169e-06,1.998244564781467e-06,1.758938398812244e-06,1.3442112354106674e-06,1.9597278786524917e-06,6.63219958559415e-07,1.8969754751439203e-06,1.1784790044148275e-06,3.163567487561888e-06,8.07828453027206e-06,7.843867246195784e-06,2.80811072943611e-06,3.7223055791571745e-06
-7.917346067081906e-08,6.428067725639974e-07,1.990221415394686e-06,2.643460531148536e-06,2.9704487414824323e-06,1.715688446790013e-06,1.9821493108510983e-06,1.7516343642820849e-06,1.3900928598778834e-06,1.9279476528027126e-06,6.789153916745703e-07,1.9245030426223128e-06,1.1960505675043779e-06,3.1726239707394346e-06,7.510562102668777e-06,7.3205578289282115e-06,2.7965893865838148e-06,3.6477146962349104e-06
-9.943708748240937e-08,6.217140611521745e-07,1.9791334387966724e-06,2.6154297512030266e-06,2.990852870261085e-06,1.7011251209468898e-06,1.947674836624475e-06,1.7535440473195568e-06,1.425405717865498e-06,1.9003278988303407e-06,6.841143372545205e-07,1.9290130074725643e-06,1.201420547146877e-06,3.1398554888545924e-06,7.391051923528954e-06,6.885873695100315e-06,2.7979074504124848e-06,3.5872805493917625e-06
-1.1036424832145959e-07,6.156920089299207e-07,1.9759912924984784e-06,2.6145211919222347e-06,2.9952004572269565e-06,1.6876594171213614e-06,1.905416681485608e-06,1.7747650645550283e-06,1.4414469465586963e-06,1.8825519927295653e-06,6.79134435144894e-07,1.8966594309196732e-06,1.1827518755072994e-06,3.0780641135795518e-06,7.585276083625442e-06,6.724601216950755e-06,2.811888651345453e-06,3.5631824245560155e-06
-1.0858403801033515e-07,6.208378757117593e-07,1.980511261688765e-06,2.6418160054151908e-06,2.9791805338541275e-06,1.6794114433169139e-06,1.8607663535223464e-06,1.8173303837737332e-06,1.4308406813183489e-06,1.8763912974170234e-06,6.549388564155613e-07,1.8230539523035974e-06,1.133295627291715e-06,3.0003149982358185e-06,8.054297507695586e-06,6.679869363057466e-06,2.832100114240348e-06,3.5877450228246785e-06
-9.694047957776171e-08,6.260468555280586e-07,1.990076559868327e-06,2.693511509482552e-06,2.9413189209841923e-06,1.675730258587797e-06,1.8155325707522745e-06,1.8752067566476933e-06,1.3902767631199381e-06,1.8796025467007236e-06,6.001214442878823e-07,1.716582189411434e-06,1.0550035649145028e-06,2.9207609416023088e-06,8.454440237479862e-06,6.631379270946916e-06,2.850962730888795e-06,3.6602228638292585e-06
-8.303308023243068e-08,6.299472911853277e-07,2.0018531787863435e-06,2.7514887421872822e-06,2.8848696303501302e-06,1.672356782742144e-06,1.771251749080584e-06,1.937350206972548e-06,1.3231392905893364e-06,1.8870097602965235e-06,5.245878106791335e-07,1.5972271325429819e-06,9.58952110391807e-07,2.853795935270013e-06,9.12976264655778e-06,6.579399948368786e-06,2.864530727316258e-06,3.7669793184214364e-06
-7.655113037062451e-08,6.335211134885821e-07,2.0134049038643833e-06,2.8020557961579056e-06,2.817382666660374e-06,1.6624120345594561e-06,1.7288200328467072e-06,1.990434151344237e-06,1.2395300891688932e-06,1.8915294620996642e-06,4.506106295903652e-07,1.4900760176814127e-06,8.609978552267495e-07,2.8102433558698855e-06,9.855534553902787e-06,6.840501814072639e-06,2.8731140524178657e-06,3.883786428635756e-06
-8.668182922806081e-08,6.367037932864206e-07,2.0217944422013467e-06,2.8258615212007214e-06,2.7480495982415767e-06,1.6351610831603016e-06,1.6860956975801051e-06,2.0212956734542065e-06,1.1536414154567308e-06,1.885569084908071e-06,3.863418071702798e-07,1.417286890553153e-06,7.765661086566386e-07,2.7933402782003756e-06,1.0108039321089494e-05,7.267647204997509e-06,2.8774916862881137e-06,3.980993053879184e-06
-1.194295739712123e-07,6.387519087192184e-07,2.0236993266125366e-06,2.751382736348047e-06,2.6853895201608586e-06,1.5843809758848603e-06,1.6385556114496583e-06,2.0198510440639194e-06,1.0802180200955025e-06,1.8631055487587e-06,3.3979099223885593e-07,1.392511724188464e-06,7.174999494607798e-07,2.7976371846320826e-06,1.0105721274082136e-05,7.505489348637832e-06,2.879519354068554e-06,4.030196258805669e-06
-1.7533173928679903e-07,6.377865538969654e-07,2.0161710482550635e-06,2.693144494205679e-06,2.6354624268267824e-06,1.5083371314848941e-06,1.582451447678196e-06,1.981569061145539e-06,1.030811375561091e-06,1.8210957517021062e-06,3.145726684387566e-07,1.4178271610008627e-06,6.895268169861443e-07,2.8111673940187795e-06,9.667905329693314e-06,7.660928815592512e-06,2.8749654342472025e-06,4.009354948945653e-06
-2.4912454552298315e-07,6.313325698173677e-07,1.996044492043371e-06,2.616212189534835e-06,2.5995045510962436e-06,1.4116886248137096e-06,1.5163414877032773e-06,1.9073861835308246e-06,1.010274509206876e-06,1.7595220996557022e-06,3.062875136959708e-07,1.482875250356526e-06,6.899335861741693e-07,2.8186739323124998e-06,9.494273105919133e-06,7.907936378253504e-06,2.8535941041844015e-06,3.906467910655959e-06
-3.313862620229546e-07,6.170111041760033e-07,1.9591315610474627e-06,2.4965322575275026e-06,2.573006775828901e-06,1.3012409118062839e-06,1.4407058777764426e-06,1.8024286380314933e-06,1.0154595273677911e-06,1.6812857852815649e-06,3.1062924896988136e-07,1.5682664253223633e-06,7.084065028209564e-07,2.804150123364619e-06,9.534251374475689e-06,8.273646385673905e-06,2.8029287795959124e-06,3.7232708109658973e-06
-4.1102652326579675e-07,5.935227559902169e-07,1.9013743326910677e-06,2.3047232498474155e-06,2.5484922258032374e-06,1.186869370586003e-06,1.3578324937471273e-06,1.6751849520257592e-06,1.0373642163385326e-06,1.5922878445384664e-06,3.231074757981177e-07,1.6530660449727872e-06,7.318274324284979e-07,2.753044521773017e-06,9.640575332264473e-06,8.512392854450323e-06,2.711834091397799e-06,3.476539552836933e-06
-4.780958735335271e-07,5.624159068896309e-07,1.8208270330320053e-06,2.1206909907290785e-06,2.5197701195621865e-06,1.0814068690076756e-06,1.2715417653314184e-06,1.5360199041749508e-06,1.0649730422893238e-06,1.500384680583824e-06,3.4370858615665885e-07,1.7248940899530625e-06,7.49615809888714e-07,2.6553495854784944e-06,9.612172213214975e-06,8.32055741295956e-06,2.576261708198773e-06,3.1937120696373123e-06
-5.26575349676099e-07,5.260958908140618e-07,1.7186324435361877e-06,1.9573852151560916e-06,2.4841396301975557e-06,9.949172045722012e-07,1.185897916145427e-06,1.3949176629674508e-06,1.0875852802069193e-06,1.4133004077136642e-06,3.739784005186757e-07,1.7786640918249865e-06,7.592731753167165e-07,2.50997003307539e-06,9.357985146253242e-06,7.827774306653247e-06,2.4011432146696893e-06,2.904764816425689e-06
-5.557087603683622e-07,4.88277358829294e-07,1.5999214418790494e-06,1.8060960023646382e-06,2.442731285462544e-06,9.411846444765584e-07,1.104764779224145e-06,1.2605279453959562e-06,1.0995900995669336e-06,1.3372452277701566e-06,4.173969818572103e-07,1.8188324737010216e-06,7.634336420524763e-07,2.328272439728493e-06,9.002883938072443e-06,7.149421721817368e-06,2.20136731400642e-06,2.6350710653583737e-06
-5.689076623030582e-07,4.547253646030207e-07,1.4750240158650403e-06,1.67589149114307e-06,2.400532420891803e-06,9.242869153703168e-07,1.0358181914746742e-06,1.1411207823536519e-06,1.1014274530955382e-06,1.2767171340248823e-06,4.788717034977943e-07,1.8574618767065565e-06,7.708253731416009e-07,2.1321979084650737e-06,8.658128475795079e-06,6.338714001672748e-06,1.9997939257866338e-06,2.401145391153831e-06
-5.714628123966446e-07,4.3214027036142465e-07,1.3585732955268113e-06,1.5705096875945755e-06,2.365365729765078e-06,9.428390731716431e-07,9.849033781728255e-07,1.0445223783937407e-06,1.0988532709199077e-06,1.2342272520429708e-06,5.614929221501173e-07,1.9071380318762775e-06,7.929670741670178e-07,1.9453299309728467e-06,8.176250066954253e-06,5.3981210866275935e-06,1.8233278422353455e-06,2.2096205666883242e-06
-5.686249073394748e-07,4.265296818215999e-07,1.2657454538293584e-06,1.4915871305717014e-06,2.3451811273437178e-06,9.92463322854507e-07,9.57215163452252e-07,9.803729928798826e-07,1.1006751618900035e-06,1.2098925227907305e-06,6.655787333150015e-07,1.976821818541051e-06,8.380427985866582e-07,1.7833774931050403e-06,7.620161169790253e-06,4.523255942211576e-06,1.6934310415708598e-06,2.060075642012595e-06
-5.642019556004761e-07,4.3880430213396236e-07,1.2084100720120862e-06,1.438093860943246e-06,2.345367286104703e-06,1.0599824178194754e-06,9.568556972400413e-07,9.531469962162613e-07,1.115709545125863e-06,1.2018557419505676e-06,7.897394182600738e-07,2.068399698006118e-06,9.092301006794545e-07,1.649146327557872e-06,7.022618171403995e-06,3.80334158501686e-06,1.6301266845442315e-06,1.9493628865278194e-06
-5.597442897799163e-07,4.7014915167651606e-07,1.1929680467594118e-06,1.4067109678514363e-06,2.3672582209525273e-06,1.1371541430190492e-06,9.83593595296928e-07,9.617055638780498e-07,1.1479868977872666e-06,1.2072114875335957e-06,9.196546464457576e-07,2.1696549824325655e-06,1.0016287777835575e-06,1.5490949901955381e-06,6.510962852252827e-06,3.2960879314159296e-06,1.637468272171517e-06,1.8733058941406963e-06
-5.546767475912948e-07,5.151723568754745e-07,1.2192786623918853e-06,1.3927221998740791e-06,2.4056771330677983e-06,1.2129634177484466e-06,1.0328913995346196e-06,1.0046025236320016e-06,1.1973274653724562e-06,1.221195797736785e-06,1.043691362125458e-06,2.2729791997065785e-06,1.1076575061851299e-06,1.484143281876458e-06,6.3220458694871185e-06,3.0550752214438453e-06,1.7052115431938332e-06,1.826201608280783e-06
-5.470226060467847e-07,5.683683964329313e-07,1.2808300670378706e-06,1.3915664441333067e-06,2.454976249710222e-06,1.2747046667162632e-06,1.0902392273188845e-06,1.0746653039585557e-06,1.2607620032360924e-06,1.2426456702052836e-06,1.154541210606533e-06,2.3745765407270106e-06,1.2165842264118142e-06,1.4533266584651823e-06,6.57828263322947e-06,3.0067371791164643e-06,1.8163582987450968e-06,1.8017415253163308e-06
-5.340744402314091e-07,6.219681312659415e-07,1.366690029904671e-06,1.4007080070735967e-06,2.5101407356329445e-06,1.3382752988308363e-06,1.1477601416634794e-06,1.162541058848541e-06,1.3335094774274577e-06,1.2692856824280163e-06,1.2462776970460618e-06,2.4648993295158375e-06,1.3186704186637715e-06,1.461256558000159e-06,7.381677457651179e-06,3.0570375957843523e-06,1.969446502816436e-06,1.7954039889815264e-06
-5.133127586313512e-07,6.665557044548545e-07,1.4643214455925102e-06,1.4199271393336768e-06,2.5689229660244375e-06,1.399074005700635e-06,1.1997426242082314e-06,1.2595325467144876e-06,1.4126861545758007e-06,1.2987906543828775e-06,1.3124299539189863e-06,2.5419620016386477e-06,1.4079197257210715e-06,1.5062341899279137e-06,8.410728857841036e-06,3.1124994042946423e-06,2.140998826649044e-06,1.8057256505756137e-06
-4.838197945245221e-07,6.980207756532208e-07,1.562621744075905e-06,1.449758074456335e-06,2.6337074439873205e-06,1.4476402510001378e-06,1.2455514898374243e-06,1.3571441321257856e-06,1.4949382558302107e-06,1.3299162448235625e-06,1.3494380429497678e-06,2.6003802065790136e-06,1.478618166955147e-06,1.5841746465629099e-06,9.142441421002525e-06,3.120476096068711e-06,2.325497287918154e-06,1.8337976439674465e-06
-4.4702723518219105e-07,7.170127396709393e-07,1.6550233183039594e-06,1.490265594582412e-06,2.707711130645434e-06,1.4701237949248402e-06,1.2852255696444526e-06,1.4487085214716323e-06,1.5735578012472182e-06,1.3633196262419922e-06,1.3670848384632172e-06,2.6404135660485554e-06,1.5344906282722806e-06,1.6748764354241691e-06,9.333489851901277e-06,3.0973721381107416e-06,2.532215002471048e-06,1.8811773500769064e-06
-4.0641619413585516e-07,7.479898667325871e-07,1.7407634829694667e-06,1.5455982953512742e-06,2.7929192171736584e-06,1.517304480546718e-06,1.315809745366877e-06,1.5310981315761524e-06,1.644964869313756e-06,1.39705603209874e-06,1.3578492293973166e-06,2.6761745898195395e-06,1.581651715267385e-06,1.7920564166618968e-06,8.59817472095806e-06,3.0803949102314337e-06,2.6809885378976843e-06,1.946174919745001e-06
-3.663547303886896e-07,7.907613210129121e-07,1.8228403981963939e-06,1.6087283932369862e-06,2.8886218615517956e-06,1.5931278836364172e-06,1.3456466113573705e-06,1.6055032693691556e-06,1.7099122271662996e-06,1.4356121301580598e-06,1.3987582088056652e-06,2.7643196789806697e-06,1.6295432592010205e-06,1.871882611661644e-06,8.143955127582429e-06,3.112972802583364e-06,2.7546082143690855e-06,2.017511994559739e-06
-3.3039608216453236e-07,8.585536038332503e-07,1.9046284618586506e-06,1.6832844791252312e-06,2.9967296700326547e-06,1.7376868093498293e-06,1.3818770014635356e-06,1.6723932267102186e-06,1.7691420825269376e-06,1.4964726299356657e-06,1.4930486247142257e-06,2.872112383287468e-06,1.6929792398688842e-06,1.8710859095938762e-06,8.179875642360118e-06,3.237974844017034e-06,2.7171862203490127e-06,2.0873091642887172e-06
-2.9958553602647185e-07,9.610018446402253e-07,1.9876106122985675e-06,1.7745421013230641e-06,3.1106449684639504e-06,2.0195653317702746e-06,1.4678987536986472e-06,1.7332439079302284e-06,1.8310237592929008e-06,1.569545523340364e-06,1.7111248612416876e-06,3.065610534407794e-06,1.7652834572868802e-06,1.8612115329109712e-06,7.210758698604558e-06,3.5068888927089147e-06,2.537175923515018e-06,2.136941347459895e-06
-2.717171829134895e-07,1.020792550948387e-06,2.0703234858643152e-06,1.8852364973655177e-06,3.2279491677868277e-06,2.1945706907644175e-06,1.6433308322600682e-06,1.792154737682563e-06,1.8958175265471447e-06,1.6861071396688987e-06,1.936408218173495e-06,3.3666972753959014e-06,1.8553891998471136e-06,1.8209126753805108e-06,6.100731522924561e-06,3.95343104570975e-06,2.516948510251038e-06,2.1532432757979994e-06
-2.4217729470905694e-07,1.0655341592878618e-06,2.148399386723243e-06,2.022659852635221e-06,3.3529226579673163e-06,2.305468759416602e-06,1.9071924599056199e-06,1.852072708296884e-06,1.9593372924546786e-06,1.8207204006505254e-06,2.07082241352302e-06,3.56904241472009e-06,1.9801167422738774e-06,1.7859698183072366e-06,5.667728552704295e-06,4.569833373515024e-06,2.5288526078117987e-06,2.13513536050176e-06
-2.0301335832996176e-07,1.1048151248246956e-06,2.215861269010126e-06,2.183929128961907e-06,3.48650091696904e-06,2.415849283858388e-06,2.1537423574115086e-06,1.929628789895714e-06,2.027603091203973e-06,1.926861524832782e-06,2.178005214995055e-06,3.657514930096618e-06,2.126742071108295e-06,1.8229725599185084e-06,5.614821405607334e-06,5.284171907803164e-06,2.4494545822989956e-06,2.0898885180270455e-06
-1.5303010886674887e-07,1.188977198440447e-06,2.2664842410606566e-06,2.356272121170722e-06,3.6358975163513316e-06,2.5131996143964415e-06,2.3597103407958534e-06,2.017109032552681e-06,2.105234405137708e-06,2.063096051466227e-06,2.386760130755603e-06,3.90111195543211e-06,2.2634411939478324e-06,1.7263496816486796e-06,6.143251156247431e-06,5.93094700418905e-06,2.2647930600139508e-06,2.0348074488552093e-06
-9.095557339676897e-08,1.2538799585229479e-06,2.294725984455247e-06,2.5078633160872974e-06,3.8095795035334412e-06,2.6513460132478756e-06,2.5328636233189204e-06,2.1219114682125007e-06,2.2053105831087233e-06,2.218536191257757e-06,2.514479914066504e-06,4.093165117941258e-06,2.3863764045489494e-06,1.613814385420928e-06,7.073511480734714e-06,6.454224964418708e-06,2.092412388330644e-06,2.001822794777455e-06
-1.8001391347441367e-08,1.2446603809905946e-06,2.297577706823854e-06,2.618930655946902e-06,3.997075214522537e-06,2.8252892093041983e-06,2.7100362813397903e-06,2.2456413005622605e-06,2.32768244947896e-06,2.3177339530244294e-06,2.438039535455608e-06,4.112101113908139e-06,2.4099714094979043e-06,1.6154708859520214e-06,7.95754399244803e-06,6.661546849943259e-06,2.0328782788755363e-06,2.0430771455882114e-06
6.147772800393469e-08,1.2370346005030953e-06,2.2768144394994313e-06,2.684774681408419e-06,4.141902189761986e-06,2.9018196559697085e-06,2.875630162933706e-06,2.3614923958595697e-06,2.4416736325900443e-06,2.3738918776027206e-06,2.3853768318653526e-06,4.097921810264812e-06,2.2969216571863338e-06,1.6539801825770726e-06,8.53415256373762e-06,6.742734808691612e-06,2.0047582133245447e-06,2.1140103970078617e-06
1.4553884532219859e-07,1.2305634682957311e-06,2.2389757951192593e-06,2.75361127361909e-06,4.241056638747219e-06,2.8730521347457857e-06,2.970415119696618e-06,2.4289821507773478e-06,2.5326667135746553e-06,2.4263707079201365e-06,2.3469515067247466e-06,4.042313696998844e-06,2.2088695146971686e-06,1.7664799459505018e-06,8.52026631066214e-06,7.017430988090245e-06,2.0169983977457036e-06,2.2551405210912578e-06
2.3424659636780744e-07,1.1976795719917389e-06,2.193048781771626e-06,2.853619902281119e-06,4.2158504714137825e-06,2.880652172493412e-06,2.9597726388327864e-06,2.406659471804657e-06,2.4552185452610543e-06,2.473120592469404e-06,2.2692636457387726e-06,3.94691635040815e-06,2.1791605691242397e-06,1.860510032431232e-06,7.817642635359186e-06,7.205745204223222e-06,1.9628941439222545e-06,2.4849683340813283e-06
3.2478062509802905e-07,1.1803968980657778e-06,2.1481073648098057e-06,2.796339831976175e-06,4.10361178089528e-06,2.861727174099285e-06,2.9567451483116114e-06,2.415943296373716e-06,2.2812106173126913e-06,2.48881692887462e-06,2.1743772427692517e-06,3.7696035984724864e-06,2.0899576573962546e-06,1.9138951922429218e-06,6.655395007414942e-06,7.102513931635927e-06,1.99154196297257e-06,2.6291375987552114e-06
3.895890245856246e-07,1.1750810934958602e-06,2.111295181200932e-06,2.7354848692484275e-06,4.04077536067101e-06,2.845319302997852e-06,2.9175053956828587e-06,2.409666543852783e-06,2.1267022286580636e-06,2.5029129850419245e-06,2.113993476890827e-06,3.645340798298344e-06,2.032180806816615e-06,1.981420280773065e-06,5.3547134826668844e-06,6.738462215115308e-06,2.1317105464475635e-06,2.8909643169399555e-06
4.4778278226204937e-07,1.1400536029387039e-06,2.0862641972316215e-06,2.8056062946143234e-06,4.0219860292138155e-06,2.8279001089681587e-06,2.8506497942783883e-06,2.418832164235676e-06,2.038353662369744e-06,2.478756447007416e-06,2.0510384408289395e-06,3.536787555638472e-06,2.0121781014987915e-06,2.180759843366099e-06,4.518759695717277e-06,6.325335532747115e-06,2.270809870388209e-06,3.2289992180523727e-06
4.5968260465456014e-07,1.0933379734329746e-06,2.074025678149316e-06,2.8831866359708722e-06,3.972603735020167e-06,2.764839328500802e-06,2.8241014516194497e-06,2.4414411821511472e-06,1.956178920621515e-06,2.4189895430201364e-06,1.9404952039237826e-06,3.358563929113429e-06,1.9521024374601165e-06,2.3819211286476753e-06,4.720529914095757e-06,5.960278176504573e-06,2.3679036455457304e-06,3.5238007795233626e-06
4.3700285224372254e-07,1.0707117626886919e-06,2.07556869168877e-06,2.996611596123226e-06,3.878436923827143e-06,2.6820401242394284e-06,2.6909839711346415e-06,2.3208076283330347e-06,1.7266787068881864e-06,2.3506198961100187e-06,1.8680590991457912e-06,3.2517945599424154e-06,1.8788437088995427e-06,2.5752695399805506e-06,5.325872203863232e-06,5.684072263693557e-06,2.4608764183290166e-06,3.7872266001909965e-06
4.6525623606167303e-07,1.0454065225482176e-06,2.0919756303744508e-06,3.0869142573530827e-06,3.7337583708428703e-06,2.62241047892076e-06,2.596536184547868e-06,2.1628171418798615e-06,1.532736791940998e-06,2.2901869408812117e-06,1.7739410557080832e-06,3.117513735656295e-06,1.7933918491620675e-06,2.7114255195211573e-06,5.895146562788546e-06,5.6069018967435185e-06,2.539784003339559e-06,3.886306577244471e-06
4.602892931728444e-07,1.0498232376638117e-06,2.1212911475701096e-06,3.2277415601697806e-06,3.70851123352651e-06,2.626637666286218e-06,2.5008409620863796e-06,2.058068930218629e-06,1.487279220098331e-06,2.2347823675290918e-06,1.7457281656935816e-06,3.071279006706725e-06,1.786585307853042e-06,2.796144342073277e-06,6.689894679678197e-06,5.695808657230678e-06,2.6306508212758078e-06,3.905781464817216e-06
4.0177273286559243e-07,1.0450316293303255e-06,2.1565505135432583e-06,3.3078920083028553e-06,3.734773758627839e-06,2.581491083179114e-06,2.4705404992669098e-06,1.932635540205208e-06,1.5399406239754973e-06,2.259674752973703e-06,1.7237804208379532e-06,3.0197873865155077e-06,1.7961911145038277e-06,2.846499464672183e-06,7.781120161282512e-06,5.869192108203149e-06,2.7275202569495527e-06,3.896373516282343e-06
3.2373606811274103e-07,1.0469794343568614e-06,2.187476111352926e-06,3.2656281321227856e-06,3.7378453487930767e-06,2.5324769801427897e-06,2.4157223044098556e-06,1.932538765562581e-06,1.6416452530804298e-06,2.309862071882048e-06,1.6905531675276014e-06,3.02747822180123e-06,1.7650937571671242e-06,2.9070332841230094e-06,8.557338047752757e-06,6.062877999643715e-06,2.8294570201060787e-06,3.848670274269931e-06
2.6727763252983063e-07,1.0407627276541664e-06,2.204263124220023e-06,3.2141588855816587e-06,3.808371810677831e-06,2.5237181927374227e-06,2.4130274005576068e-06,1.9669559235782434e-06,1.8028276800790214e-06,2.345090844940705e-06,1.6733000542985894e-06,3.0440080820032106e-06,1.7560972385464645e-06,2.9749372997193893e-06,8.795775647482115e-06,6.17745494145442e-06,2.939903192919203e-06,3.808876452646516e-06
2.5002642742730497e-07,1.0111490324828256e-06,2.1974538672958773e-06,3.1782416441963323e-06,3.882330304777624e-06,2.4605396256540357e-06,2.407627197840341e-06,1.9819463017945798e-06,1.9154550283306453e-06,2.3434039021207296e-06,1.618574528603756e-06,2.9895706138359776e-06,1.7396800135692382e-06,3.073544603368759e-06,8.955833144385335e-06,6.15037480914678e-06,3.044355235687455e-06,3.810273243987825e-06
2.3623919828994245e-07,9.719306705603005e-07,2.1716448999054986e-06,3.181898935452886e-06,4.007959596363051e-06,2.436560888576295e-06,2.381675257880988e-06,1.991363673878114e-06,2.03603048378755e-06,2.3331569284317234e-06,1.585695888902619e-06,3.0033171207001167e-06,1.734425247340323e-06,3.1909304624092927e-06,8.615264506117077e-06,5.949524618389604e-06,3.1342224964644433e-06,3.6393337647222245e-06
2.663394762754439e-07,9.679743887115652e-07,2.1297998940860274e-06,3.125879650573538e-06,4.17792826625915e-06,2.452586264162134e-06,2.44452538457397e-06,2.0193461161894583e-06,2.2119469834909757e-06,2.3112507635694908e-06,1.6223930057737289e-06,3.032171874000385e-06,1.825582840796878e-06,3.3093134559643767e-06,7.866805146121323e-06,5.59760624798285e-06,3.1980454791592295e-06,3.3779846066991587e-06
3.2387557295079823e-07,9.949157797896195e-07,2.0738888334910383e-06,3.051770326208154e-06,4.335679546730054e-06,2.5099423623691806e-06,2.563278531954323e-06,2.0594443015375227e-06,2.3721023382887873e-06,2.2948030907742224e-06,1.677245013234088e-06,3.103744368708713e-06,1.8997354684211157e-06,3.42126133112824e-06,6.958090096825774e-06,5.195005329503562e-06,3.224189662270353e-06,3.2775386207569572e-06
3.5212518741159335e-07,9.845642861781487e-07,2.0087282268712835e-06,2.9971392640586365e-06,4.392326603199587e-06,2.615848649677477e-06,2.7276269403964633e-06,2.1260511740526083e-06,2.463356519494273e-06,2.275227964599085e-06,1.750624712613907e-06,3.1075991294997836e-06,1.9489307560758406e-06,3.5241606855615376e-06,6.025319141108742e-06,4.8929138522409225e-06,3.2090445960227366e-06,3.2751289532935415e-06
3.606563383202535e-07,9.444614856627535e-07,1.938421462840054e-06,2.9782834047369664e-06,4.448625487079795e-06,2.74128409706905e-06,2.8635799551611864e-06,2.222378755733662e-06,2.524003178922962e-06,2.2852241842758547e-06,1.7492398058379619e-06,3.10249589424364e-06,1.97472553769214e-06,3.6199876351813652e-06,5.915135889066341e-06,4.837703839761853e-06,3.164327044542116e-06,3.24362987227758e-06
3.403178921708336e-07,9.217806703233065e-07,1.8709252111256618e-06,2.9949483362209933e-06,4.452808516044841e-06,2.8652910946947347e-06,2.942019845443134e-06,2.348753397173407e-06,2.55586805259203e-06,2.3371028552022926e-06,1.7589464623758533e-06,2.994833339317736e-06,1.9604927438250158e-06,3.710158381669129e-06,6.118180582041078e-06,5.107798729199246e-06,3.1024471178461993e-06,3.1284235473810915e-06
3.2075894106908013e-07,8.856013406589252e-07,1.8172525221337267e-06,2.945228874511312e-06,4.469946876520875e-06,2.9230497398925384e-06,2.9726758416839654e-06,2.492695788970193e-06,2.5697747563038484e-06,2.3887841735674638e-06,1.7059733893420257e-06,2.8543334631837137e-06,1.9124366432045463e-06,3.7932984777578887e-06,6.354939387884614e-06,5.683798418242777e-06,3.044853266273193e-06,3.0868513952967885e-06
3.040832596392861e-07,8.521384269739898e-07,1.8242652778785656e-06,2.9233032068864535e-06,4.429868826823412e-06,2.9715850852336613e-06,2.918739497776406e-06,2.6383452079694267e-06,2.5556811154309887e-06,2.4353242491905587e-06,1.6203196105952945e-06,2.7700035533163755e-06,1.8888141325927867e-06,3.867578962410442e-06,7.163992961617346e-06,6.425511452139344e-06,3.0192814448882225e-06,3.1094325675294434e-06
3.029071040973316e-07,8.51923458752354e-07,1.8617827669698426e-06,2.918906871595487e-06,4.3766417412383545e-06,3.013984653351053e-06,2.880480769800837e-06,2.779550037754762e-06,2.5453710202701685e-06,2.484651604545515e-06,1.6351945130991693e-06,2.651637965615491e-06,1.8109823974516652e-06,3.933645625585007e-06,7.916386103659539e-06,7.1627127871029695e-06,3.046036276482614e-06,3.242863862308326e-06
3.170621099742477e-07,8.483699062551569e-07,1.938346886416351e-06,2.9371221816729703e-06,4.3295695744373875e-06,3.027608019933877e-06,2.8562136082517425e-06,2.9060228248888184e-06,2.4454586386124876e-06,2.5319024631092685e-06,1.6346541628546788e-06,2.428235995205965e-06,1.6711886626099774e-06,3.9945262502876505e-06,7.738571412502506e-06,7.725309225400651e-06,3.136347487783129e-06,3.4279167977676597e-06
3.381592732120546e-07,7.872344441363415e-07,2.0666296157580197e-06,3.0569704962789934e-06,4.305237750728075e-06,3.063031488090464e-06,2.8269579086354153e-06,3.0135348729851674e-06,2.289895098079283e-06,2.57059254293277e-06,1.5206755688914278e-06,2.0594862715127008e-06,1.4429999800406884e-06,4.05228097903002e-06,7.4907942770424455e-06,7.85851327982953e-06,3.268052923597103e-06,3.6451421615863975e-06
3.556433575564055e-07,6.836836574973945e-07,2.170115337513811e-06,3.179792556312862e-06,4.187476063998975e-06,3.0172184548639934e-06,2.7376483483081327e-06,3.084795697888681e-06,2.0921525936423317e-06,2.602265167115554e-06,1.26611413216905e-06,1.721954209249743e-06,1.2077048270771314e-06,4.1040023491386304e-06,7.420520896688279e-06,7.849159652194831e-06,3.4321394603963294e-06,3.896274615109339e-06
3.6185527732350624e-07,5.8812073395709e-07,2.3143908827100893e-06,3.303819184314869e-06,4.004139965536351e-06,2.9113456441470068e-06,2.5660598242541898e-06,3.11824752184094e-06,1.8656780985827385e-06,2.6270549331996958e-06,1.0061316814783757e-06,1.5361247416467392e-06,1.005664188611076e-06,4.1410508380375335e-06,7.4757871255878166e-06,7.615279351600127e-06,3.5934439446509824e-06,4.095889055902383e-06
3.5357657405510127e-07,5.086454752693682e-07,2.4747410122917985e-06,3.4264373592331852e-06,3.8076391162032847e-06,2.7902471567635324e-06,2.365033718861617e-06,3.0996793051930845e-06,1.66160421327412e-06,2.6435169227835118e-06,7.859447311639699e-07,1.3832244357328118e-06,8.490027153376424e-07,4.15255949044644e-06,7.300078454224388e-06,7.143322207230057e-06,3.7278448546175073e-06,4.241789636455077e-06
3.3115471281007244e-07,4.121570252946923e-07,2.6044234832116216e-06,3.4912867967168667e-06,3.621088211260253e-06,2.629007734372708e-06,2.1597445468223875e-06,2.9997415468327994e-06,1.5276817457422484e-06,2.6493280605637893e-06,6.1756689731331e-07,1.2800158111293973e-06,7.784353964460303e-07,4.129483393404748e-06,7.243774466965695e-06,6.418466758788203e-06,3.7146997522534515e-06,4.370664108053232e-06
2.968331004934704e-07,3.6370421730415995e-07,2.708566080334925e-06,3.512101218440762e-06,3.4964762542746144e-06,2.4856072922247883e-06,2.0172762651162857e-06,2.9476215294174128e-06,1.440351026813115e-06,2.642621213118724e-06,5.462719878590044e-07,1.1106091655310512e-06,7.672215868249493e-07,4.066822815416936e-06,7.658509872015909e-06,5.730220196378129e-06,3.5891241183235303e-06,4.505512556294738e-06
2.5325514638799154e-07,3.517309200252399e-07,2.75679283060864e-06,3.5065876730234155e-06,3.3907881651327495e-06,2.3627828533624416e-06,1.9280221494229377e-06,2.930020556652314e-06,1.389351631329544e-06,2.623255254663573e-06,4.987438008872549e-07,1.061678486128178e-06,7.854639157394735e-07,3.966355562814378e-06,8.166874005030737e-06,5.208621413886401e-06,3.497741078697292e-06,4.600610942163848e-06
2.028608037730955e-07,3.3406171532646465e-07,2.814262610736794e-06,3.4649669852625445e-06,3.2895082780214216e-06,2.247131125949094e-06,1.8592432763188024e-06,2.93870479915017e-06,1.3768159032649852e-06,2.5938288054159913e-06,4.5569213401393167e-07,1.121232139454628e-06,8.138576367352966e-07,3.839622148400995e-06,8.276153065431588e-06,4.902786903788385e-06,3.4473449418469884e-06,4.603743806999782e-06
1.4806629784223778e-07,3.0828570666495327e-07,2.8182430951188414e-06,3.4066204341960864e-06,3.191930972700644e-06,2.147855949412025e-06,1.8031791423268595e-06,2.954776763175725e-06,1.3677054376152587e-06,2.559413641897955e-06,4.5136804132852357e-07,1.1496237490758019e-06,8.312708878098954e-07,3.706071313469433e-06,8.358006379791757e-06,4.8401954298177105e-06,3.4743936856512337e-06,4.5236713057822e-06
9.122175726055312e-08,2.8355501569382894e-07,2.7306093841857644e-06,3.3460446941817503e-06,3.1058037332510333e-06,2.058592220270985e-06,1.7398890639731732e-06,2.940647194319402e-06,1.3542950587191758e-06,2.525712815934909e-06,4.561202152694227e-07,1.2215815003760594e-06,8.274209982309029e-07,3.5854840303614007e-06,9.456051144086012e-06,4.958607709881469e-06,3.5096674043998203e-06,4.429752170363687e-06
3.433327261340694e-08,2.5539196916327355e-07,2.653525104048805e-06,3.289770365792896e-06,3.0281226713952337e-06,1.974992139768592e-06,1.675991626717545e-06,2.8564833025062397e-06,1.334668747391181e-06,2.497244877867477e-06,4.6397377969596567e-07,1.3491423685355742e-06,8.011706332533009e-07,3.490608818652715e-06,9.707549746546361e-06,5.150580458169892e-06,3.4013664105039898e-06,4.371535646683007e-06
-2.0796108874467277e-08,2.2350048080192834e-07,2.5987297351251955e-06,3.247946132283016e-06,2.9538524255159984e-06,1.9000636067245382e-06,1.621660891837825e-06,2.751197964692716e-06,1.3069278771892902e-06,2.4765886334841216e-06,4.757801116875282e-07,1.4280255630327918e-06,7.615723210504558e-07,3.4243781973404177e-06,9.146240394870905e-06,5.32167336134104e-06,3.1573525955542587e-06,4.302961592930552e-06
-7.241153220465904e-08,2.0269327577423003e-07,2.549835691639968e-06,3.220032346444089e-06,2.8901608067940364e-06,1.8430319153619014e-06,1.5839224732121804e-06,2.6540970315335457e-06,1.2840386281749058e-06,2.46411694568183e-06,4.853079385606004e-07,1.493211425778798e-06,7.256908469023634e-07,3.380397962653584e-06,8.588920080263072e-06,5.436924130840959e-06,2.910899130678847e-06,4.250968270784571e-06
-1.1894014650767616e-07,1.9633355341713957e-07,2.514545517633968e-06,3.198129789309176e-06,2.84009162527326e-06,1.8102119127909306e-06,1.5717260626151717e-06,2.534680251810178e-06,1.2805788605877257e-06,2.458191271429098e-06,5.064721613610043e-07,1.5694185164551627e-06,7.168391033480888e-07,3.3449162806985834e-06,7.876301930865111e-06,5.523157108020328e-06,2.694642714386871e-06,4.2053397673369244e-06
-1.587154456631866e-07,1.8402698697419156e-07,2.4846237229140195e-06,3.171973865161294e-06,2.8216843569491885e-06,1.80987700518244e-06,1.5922542029056278e-06,2.437999930407088e-06,1.308951106133209e-06,2.456342608230398e-06,5.666368149963399e-07,1.6872552122232913e-06,7.566071890616694e-07,3.30134568842968e-06,6.071128168773918e-06,5.625175449993789e-06,2.5120190600469383e-06,4.112305206213688e-06
-1.8913803289667847e-07,1.996490216332933e-07,2.456465599759478e-06,3.1324683393239305e-06,2.841107508923113e-06,1.846589195371028e-06,1.6494246395769749e-06,2.364249693985173e-06,1.3775220726688464e-06,2.4565261131524315e-06,6.752365822189861e-07,1.8647344822490165e-06,8.581973796809845e-07,3.2369014751751916e-06,4.417282379492968e-06,5.7557810230051875e-06,2.3586726118363292e-06,3.9744803284684935e-06
-2.066883415154858e-07,2.2521464265065126e-07,2.424324608455123e-06,3.0750581937029017e-06,2.8958860955385738e-06,1.9229008654889285e-06,1.7421866846287024e-06,2.2933012643017903e-06,1.4869676944184735e-06,2.457194486658966e-06,8.239588451300894e-07,2.096350027414036e-06,1.0209702908137984e-06,3.1469657084113863e-06,4.040490517155493e-06,5.8793242709540114e-06,2.266470026371112e-06,3.793811705322876e-06
-2.0834032702466046e-07,2.495547012348021e-07,2.382148209028762e-06,3.0002040505031432e-06,2.9716932673730885e-06,2.0382546691914847e-06,1.8637067344045227e-06,2.232999064330903e-06,1.6287588921862193e-06,2.4568317674029116e-06,1.0093580660136558e-06,2.3661601214578314e-06,1.2282523227113453e-06,3.0342904691664457e-06,4.615426574659863e-06,5.944343705614284e-06,2.272472038225831e-06,3.5839106670455487e-06
-1.9306592042439195e-07,2.7163920632946325e-07,2.329489392736938e-06,2.9125247546974023e-06,3.0551106418994725e-06,2.181773114340908e-06,2.0077651534088126e-06,2.170388644397002e-06,1.7866207207678415e-06,2.4540401667676125e-06,1.2147834295339225e-06,2.6441555573515217e-06,1.4518111685698212e-06,2.904983095819432e-06,5.440905106302714e-06,5.926746593353937e-06,2.3279681210623504e-06,3.3761641699397067e-06
-1.6271694008695607e-07,2.9640529361930694e-07,2.265653470130447e-06,2.8191835788465416e-06,3.1315528672840805e-06,2.337570778782533e-06,2.1547685160841987e-06,2.1250762993771256e-06,1.940424040892416e-06,2.447719523860228e-06,1.4171670117377613e-06,2.90227028337871e-06,1.660159569278927e-06,2.764852395822363e-06,5.7086551543882585e-06,5.8482375894592164e-06,2.371491563984009e-06,3.1898668950878242e-06
-1.2263712660092778e-07,3.2586704842926616e-07,2.2010096538495782e-06,2.7275869171984257e-06,3.1842458968189656e-06,2.463632159865022e-06,2.288876264129318e-06,2.0903730800567047e-06,2.070371612262123e-06,2.436906445811985e-06,1.5956449742719555e-06,3.111466918775315e-06,1.8269537086381381e-06,2.6185594387368385e-06,6.251726955470702e-06,5.762794602430989e-06,2.411996694118017e-06,3.0376937155334164e-06
-8.176526026330737e-08,3.5092597494700813e-07,2.127891108240764e-06,2.6436531374437325e-06,3.2016698509042973e-06,2.51884928218312e-06,2.3938461640947737e-06,2.0667412650828027e-06,2.1605642498195526e-06,2.4207771102923127e-06,1.729515710512809e-06,3.2516313472963275e-06,1.9372177390668478e-06,2.471572588590162e-06,7.374113230579477e-06,5.718262106847072e-06,2.441133774162238e-06,2.9227260694268597e-06
-5.148962945584886e-08,3.7745442347786956e-07,2.09316244644013e-06,2.5710382494597066e-06,3.1763182954520365e-06,2.477030295015084e-06,2.4091293751698846e-06,2.055061775320441e-06,2.201713129562856e-06,2.3987246119713613e-06,1.8071265939873419e-06,3.317652902484775e-06,1.989185438653858e-06,2.3320005966771587e-06,8.821809938217534e-06,5.718433165132462e-06,2.4478963545993355e-06,2.8362507507493977e-06
-4.326495857951582e-08,3.738037152002253e-07,2.106396293166651e-06,2.510452231839333e-06,3.108461763985857e-06,2.4326762649758793e-06,2.3777433330960447e-06,2.048055909003909e-06,2.1923903945416908e-06,2.3701969906702937e-06,1.8315299608709568e-06,3.3167933436516485e-06,1.9913568299912527e-06,2.2097003900557967e-06,1.0138511322206107e-05,5.711589138935122e-06,2.4532265575591965e-06,2.7644118477648733e-06
-6.530802894193816e-08,3.651091795940052e-07,2.1511082705999917e-06,2.459855484819408e-06,3.0099500823107696e-06,2.4008454866238944e-06,2.3744929013804002e-06,2.0475658962450247e-06,2.1389714379224373e-06,2.3351275229396403e-06,1.8118929235362977e-06,3.265042956754618e-06,1.957997189752058e-06,2.113204606795108e-06,1.0698347898893228e-05,5.616532140666026e-06,2.492770975058963e-06,2.695098581551108e-06
-1.1895275545984596e-07,3.673040358091316e-07,2.220337168034783e-06,2.416637701822535e-06,2.8921695357805427e-06,2.384282588059112e-06,2.2959136035607627e-06,2.0508302613973375e-06,2.0548832951905016e-06,2.295127196193625e-06,1.7626569661538422e-06,3.1850402270987216e-06,1.905757589618145e-06,2.046005608953561e-06,1.0698642354866636e-05,5.366884811917012e-06,2.575131398918162e-06,2.621297029205149e-06
-1.9681738205203685e-07,4.208308789259316e-07,2.3230226147118343e-06,2.3796021322758826e-06,2.7688158860407553e-06,2.325991084861171e-06,2.1195753065524713e-06,2.0539999790284613e-06,1.9585760956671265e-06,2.2536542550358023e-06,1.709425924396875e-06,3.101317945487828e-06,1.8507257649493882e-06,2.00343279550451e-06,1.0865085812123329e-05,4.948145646708942e-06,2.681310281574635e-06,2.539996933640095e-06
-2.849976441032182e-07,4.99005542814521e-07,2.4974215946011996e-06,2.3481078160726466e-06,2.6537723686814016e-06,2.1978160897484067e-06,1.9583025007347906e-06,2.046896426668091e-06,1.8695993211071808e-06,2.2143147224678933e-06,1.677082101293279e-06,3.035285820257924e-06,1.8055128095130895e-06,1.9727310699350724e-06,1.1167333741638648e-05,4.411884501533249e-06,2.7922873989082435e-06,2.449892174374547e-06
-3.6814627527566175e-07,6.142329809377857e-07,2.6461707532580412e-06,2.3201813408640595e-06,2.5553021086712596e-06,2.017057739889408e-06,1.8380156501355605e-06,2.025189891694903e-06,1.8039883101791743e-06,2.1792138958327616e-06,1.687039214736511e-06,3.0015738407010466e-06,1.7776419110456219e-06,1.937900785689901e-06,1.0484878797872603e-05,3.864783946484791e-06,2.8730400023737714e-06,2.3513570492612364e-06
-4.3381292152965965e-07,6.914101017657753e-07,2.7421268154902347e-06,2.2931010677200134e-06,2.4784177557345965e-06,1.8379184937657524e-06,1.7544466662199975e-06,1.987112809002908e-06,1.7706072196693441e-06,2.148854842395856e-06,1.7451382321059126e-06,3.001172302421158e-06,1.768811710865144e-06,1.8859954953434669e-06,9.366095235222762e-06,3.437725542222957e-06,2.8961641349880004e-06,2.248521321262378e-06
-4.7412167564300113e-07,7.51868984962707e-07,2.8411198627176784e-06,2.26581332888221e-06,2.4236255524093654e-06,1.7129373600833008e-06,1.7196884153866206e-06,1.9347098130261977e-06,1.7689367457212802e-06,2.122489444972725e-06,1.8375082346418318e-06,3.026171918270495e-06,1.77363528839828e-06,1.8104953067956038e-06,7.954435220308855e-06,3.23516968956211e-06,2.862454135671477e-06,2.1506016222264847e-06
-4.859032466414718e-07,8.060747413103725e-07,2.8925975923087814e-06,2.2400725627116137e-06,2.386037950890015e-06,1.680522719280274e-06,1.7274271545096743e-06,1.877426805077829e-06,1.7888682223805495e-06,2.0979980207791052e-06,1.9068931167074912e-06,3.0503714566776495e-06,1.779445161130015e-06,1.7119867266644503e-06,6.656163718986451e-06,3.280643732067347e-06,2.7954430707139125e-06,2.0708178410517283e-06
-4.7017965937985814e-07,7.969589444472684e-07,2.9031000104939625e-06,2.2196708119769667e-06,2.3554971982540916e-06,1.6695062677680038e-06,1.759762495054013e-06,1.8257961160859576e-06,1.8136719872437331e-06,2.072148279577062e-06,1.89416853723955e-06,3.042573802090164e-06,1.7696590072056319e-06,1.5980521241516398e-06,5.933519813616168e-06,3.5025665680461463e-06,2.737621558396627e-06,2.023090909983271e-06
-4.3076208325362714e-07,7.477621875850876e-07,2.9090974720303225e-06,2.2085236262612284e-06,2.3218084586114167e-06,1.6433558349692961e-06,1.793132554897129e-06,1.7899362155612624e-06,1.8256606526993385e-06,2.041547575379297e-06,1.7815847331812577e-06,3.019037788255062e-06,1.7292665346164152e-06,1.4812308797065786e-06,5.438593641639183e-06,3.7763918485791453e-06,2.7316969374756817e-06,2.0170513190770455e-06
-3.7254731985068525e-07,7.272438079233133e-07,2.906954799324274e-06,2.207541042856053e-06,2.2766125225259217e-06,1.5996754750906162e-06,1.8050350261348914e-06,1.7757719531593367e-06,1.8119259664305472e-06,2.003446880576402e-06,1.6599735041912416e-06,2.8985790945540657e-06,1.6491847667924066e-06,1.3746572994049287e-06,6.064773092835583e-06,3.985018555787469e-06,2.798547155192715e-06,2.0531025524846987e-06
-3.005263536828718e-07,7.344192940085835e-07,2.908739493770072e-06,2.2118103720261946e-06,2.2148930512941005e-06,1.5160161291940382e-06,1.7799356595561665e-06,1.7815990378543435e-06,1.768212567009863e-06,1.9565285206683276e-06,1.5712384720945923e-06,2.6540610847166974e-06,1.5290473656663994e-06,1.2892179937611654e-06,7.069456029728846e-06,4.05359116670912e-06,2.928631457331715e-06,2.1207823996836177e-06
-2.1960328002921331e-07,7.289581434332663e-07,2.9045604738768504e-06,2.2113107641673568e-06,2.1331579416845576e-06,1.3924538706017044e-06,1.7138415419697132e-06,1.7993464853369173e-06,1.7004185654429997e-06,1.9021171799255086e-06,1.4827767280428737e-06,2.3952288157396313e-06,1.3786767500788789e-06,1.2343209714845015e-06,8.019417167395618e-06,3.954520553854645e-06,3.0907226158942464e-06,2.201951648834611e-06
-1.3477684059791195e-07,7.191987704232495e-07,2.8738587122616153e-06,2.1953572302225044e-06,2.037270863290289e-06,1.2517810326099364e-06,1.6148016063686178e-06,1.818926250780511e-06,1.6227862687746185e-06,1.8446485892170887e-06,1.2511354512377811e-06,2.147555968108446e-06,1.2162150874407236e-06,1.2185524851464232e-06,8.120355070404116e-06,3.6979944768858727e-06,3.25015750195837e-06,2.2769646364887943e-06
-5.161640709551908e-08,7.047809136958533e-07,2.8058727694561437e-06,2.1539398963097224e-06,1.9369844013611413e-06,1.1178486705587947e-06,1.4978402142862286e-06,1.832788615742916e-06,1.55250156900396e-06,1.7905835468827497e-06,9.992734692009515e-07,1.9068282076056445e-06,1.0627203739334717e-06,1.2467891616080867e-06,7.815358124020435e-06,3.3198743720029332e-06,3.3833171520923823e-06,2.3308389063795437e-06
2.3748154131701088e-08,6.488919869368463e-07,2.703356664862457e-06,2.0897820029519867e-06,1.8424025923489028e-06,1.0123487545138103e-06,1.3783505151036747e-06,1.8393169921043055e-06,1.5032999373909395e-06,1.7471935435418156e-06,7.670115826512227e-07,1.6982661306107125e-06,9.370045715043354e-07,1.3152644233387138e-06,7.455781362377132e-06,2.8758954204588405e-06,3.481943782620579e-06,2.3575065679471506e-06
8.591029769488542e-08,5.743363233971595e-07,2.5846711901378808e-06,2.0234733731227783e-06,1.762546974324859e-06,9.485522547638398e-07,1.268344104322257e-06,1.8441889731173816e-06,1.4812068539762996e-06,1.7220261489434932e-06,5.655746815022311e-07,1.5474565209638475e-06,8.525573535661148e-07,1.4080516681847122e-06,6.359098890254923e-06,2.4361387838414273e-06,3.5496197416444263e-06,2.3612055282748847e-06
1.317253525478614e-07,4.92016585967938e-07,2.4774526539869684e-06,1.9662692277861546e-06,1.7025459717947515e-06,9.29334062539023e-07,1.1746729636383105e-06,1.8577316611684253e-06,1.4829328566647197e-06,1.7215515764875082e-06,4.504835229420228e-07,1.4520534438463613e-06,8.145319126020763e-07,1.498169413114407e-06,4.970880851413038e-06,2.067447493919942e-06,3.59591280983688e-06,2.35461625539492e-06
1.6064306125198402e-07,4.0917277340052096e-07,2.406983127341374e-06,1.9737882610668395e-06,1.6608758023178774e-06,9.46898269944659e-07,1.0974944869657097e-06,1.8888425252113036e-06,1.496595177507612e-06,1.748587602034563e-06,4.062070121012905e-07,1.3988948989055606e-06,8.169739519872563e-07,1.555838499882233e-06,4.056683353233539e-06,1.812023831646427e-06,3.632578758217575e-06,2.3546391793323743e-06
1.7418148291783258e-07,3.431255909066035e-07,2.386186700181358e-06,2.0882521067813647e-06,1.6296340754182453e-06,9.85147369101721e-07,1.0308487083976968e-06,1.9399499256621125e-06,1.5055795197145906e-06,1.8006602653147267e-06,4.146617933522667e-07,1.3658151885069888e-06,8.437858712000597e-07,1.5618676081512691e-06,3.817854717170698e-06,1.6845794431241822e-06,3.672659255583747e-06,2.3774599865019204e-06
1.755049335874181e-07,2.2327716758888676e-07,2.41244481734731e-06,2.151574438884536e-06,1.6000586338261675e-06,1.0255206757051544e-06,9.664064128099144e-07,2.006186600696023e-06,1.4950341280286287e-06,1.8705332192365444e-06,4.5201680220960194e-07,1.3296642406697456e-06,8.744024325480649e-07,1.5172992278183206e-06,4.0703041589081284e-06,1.6861348341398494e-06,3.7293357284127287e-06,2.4335796901658818e-06
1.6872179101371746e-07,1.1676972984823762e-07,2.4703865933764096e-06,2.2022322059624345e-06,1.5644549238447041e-06,1.053666788430951e-06,8.977587917050644e-07,2.0774357631162574e-06,1.4577328149554776e-06,1.9478717510438815e-06,4.797187064193664e-07,1.2756954993892445e-06,8.913935156307706e-07,1.4412816778265642e-06,4.578727192262101e-06,1.8147909926715283e-06,3.8122670294465224e-06,2.5237851882428985e-06
1.573471380889896e-07,8.04128929678987e-08,2.5379493812282476e-06,2.3823634306242776e-06,1.5203463265844398e-06,1.0634487758966319e-06,8.233568475399826e-07,2.1414037838596705e-06,1.3965479367878062e-06,2.021321003540113e-06,4.888381667433403e-07,1.2045767118719994e-06,8.870380198760332e-07,1.3600768288093454e-06,5.029625327572532e-06,2.0584489069293694e-06,3.924107113535391e-06,2.6386774926183865e-06
1.4313426195008042e-07,6.912974820970839e-08,2.5944386047886113e-06,2.5906220533633527e-06,1.471322039766062e-06,1.0571452766975146e-06,7.482572251036474e-07,2.187371039840782e-06,1.3233226469296355e-06,2.081016132870154e-06,4.831593371215957e-07,1.1324813033753646e-06,8.661622872486276e-07,1.2974637057824332e-06,5.235769398617469e-06,2.378788488729575e-06,4.060153345772231e-06,2.7625580357943254e-06
1.2635181641988613e-07,5.950778986834727e-08,2.6277405404384606e-06,2.6742290113946107e-06,1.425180226474808e-06,1.0424069173840746e-06,6.831638453135782e-07,2.2093189712106834e-06,1.2546645859837324e-06,2.1206949958232504e-06,4.726218550779259e-07,1.0830760520920551e-06,8.426796131335522e-07,1.2713362455416163e-06,5.218598500061527e-06,2.7097630503900365e-06,4.209362016678588e-06,2.8786114696869766e-06
1.0675671803627836e-07,7.40971288801779e-08,2.6364254006213373e-06,2.6707620212984674e-06,1.3905240902465321e-06,1.0275126672740626e-06,6.393578305621688e-07,2.2066431224081086e-06,1.205625704573123e-06,2.137700090540167e-06,4.7080096231550876e-07,1.0754810532886867e-06,8.312428551307183e-07,1.2925337335022175e-06,5.1438150323698325e-06,2.975480785475348e-06,4.354830239899915e-06,2.972615199237684e-06
8.445765083546465e-08,7.59318724328731e-08,2.6265192657728406e-06,2.6878464807356362e-06,1.3730676108471071e-06,1.01780494835405e-06,6.228747782669378e-07,2.1828703071262298e-06,1.1841641337511914e-06,2.1327178635236705e-06,4.868032997315613e-07,1.1152889609078617e-06,8.39915963477685e-07,1.3615272404578697e-06,5.169596847251602e-06,3.1167334018278473e-06,4.4758314587340455e-06,3.0352843425065983e-06
6.06952287100835e-08,6.618585488391862e-08,2.6065787254329977e-06,2.6978428246657223e-06,1.374187115994624e-06,1.0150478967914326e-06,6.322715269696204e-07,2.1442774556496023e-06,1.1892554022752916e-06,2.1093502573741175e-06,5.222226892828292e-07,1.1927855505795426e-06,8.678047620119046e-07,1.4653183003162203e-06,5.343633668635287e-06,3.109037962586865e-06,4.552638083025518e-06,3.0633393990547097e-06
3.808757842953956e-08,5.647693170145379e-08,2.583178764113917e-06,2.7149884193819617e-06,1.392072956035465e-06,1.0182980820084607e-06,6.593953795356492e-07,2.097944025479529e-06,1.2125090561913325e-06,2.072921867915993e-06,5.716038982494511e-07,1.287305483982409e-06,9.066249288940914e-07,1.58057501881155e-06,5.6224119114836375e-06,2.9661459375833143e-06,4.571912629787475e-06,3.058532234650938e-06
1.9671733300786697e-08,4.3654112858097247e-08,2.5576611479347e-06,2.6572900101495233e-06,1.4201389215335653e-06,1.024677589640485e-06,6.912787462533298e-07,2.049050518055207e-06,1.241546365061654e-06,2.0288605910723523e-06,6.248773135780632e-07,1.3747458557103893e-06,9.444304519529721e-07,1.6832787301206922e-06,5.950452435374238e-06,2.7340479771304866e-06,4.531248443905834e-06,3.0257980027116594e-06
7.592022259235763e-09,4.025875714125477e-08,2.526286153968821e-06,2.548120163032005e-06,1.4495841592323427e-06,1.0305682984153353e-06,7.141940511324823e-07,1.999547036864026e-06,1.2640682013577385e-06,1.9814537642120615e-06,6.712576131338633e-07,1.4351558038954088e-06,9.703772214303087e-07,1.7569779055827054e-06,6.311024981511204e-06,2.4775434051992554e-06,4.441984578053905e-06,2.972293956848549e-06
2.476900939567734e-09,4.2843221959724794e-08,2.4837994196275887e-06,2.472660071996933e-06,1.4724725716688486e-06,1.0332642017222525e-06,7.18844204985248e-07,1.9488833267592778e-06,1.271340275997446e-06,1.9332072166949057e-06,7.028135621328663e-07,1.457914895108663e-06,9.778836308642117e-07,1.7932757621059236e-06,6.727997220104236e-06,2.2560892611209764e-06,4.326890121642132e-06,2.9061965598091262e-06
3.0533817700584046e-09,4.454994938761658e-08,2.4265866632141356e-06,2.3718417278233475e-06,1.4816813127185276e-06,1.0314137514927928e-06,7.018847021269315e-07,1.89494600121565e-06,1.2595539410850524e-06,1.884723519951077e-06,7.156056995473278e-07,1.441793988420193e-06,9.645612080896198e-07,1.7883525276175444e-06,7.225553685135789e-06,2.0978013895848745e-06,4.211553841207224e-06,2.834124117346709e-06
5.7696307176737174e-09,3.5078791609856604e-08,2.3535040122040512e-06,2.2938432808637032e-06,1.4735230860733072e-06,1.0241044533492918e-06,6.630631122756297e-07,1.8345962202482756e-06,1.2292598662358412e-06,1.8346829740831162e-06,7.092703049468204e-07,1.3920786440855652e-06,9.312569661529611e-07,1.7432394127603069e-06,7.764757746077509e-06,1.9903312142567634e-06,4.115051108798141e-06,2.75945246228764e-06
5.548595409334368e-09,1.3316320864939602e-08,2.2663643203321714e-06,2.235665362525552e-06,1.445514729052106e-06,1.0103449203840528e-06,6.028317390545112e-07,1.7651655446390408e-06,1.1842227018823183e-06,1.7812025464426833e-06,6.868331110032155e-07,1.3185550096699128e-06,8.821976946320847e-07,1.667453733639395e-06,8.217868718655147e-06,1.8971726557535894e-06,4.045818259252048e-06,2.6829699879244565e-06
-2.162008096997229e-09,-1.607716662885191e-08,2.17040061638431e-06,2.171528021814326e-06,1.3966431653346768e-06,9.893306996794728e-07,5.22648970914085e-07,1.6862531300708986e-06,1.129915718518878e-06,1.7234950151948454e-06,6.539138645639907e-07,1.2328909271529834e-06,8.243371459803594e-07,1.5788664836857817e-06,8.418995173296315e-06,1.782109727687236e-06,4.00254404025541e-06,2.6038549204446276e-06
-1.9715485179574374e-08,-5.890197103642372e-08,2.072592528871217e-06,2.112254057771335e-06,1.3284661993802688e-06,9.60636065240529e-07,4.2589866979754744e-07,1.59988705634698e-06,1.0715722850196675e-06,1.661967655934659e-06,6.163719215001566e-07,1.14495915679267e-06,7.647833401006931e-07,1.4974228013992774e-06,8.246821360489702e-06,1.6305395730528148e-06,3.977332865649487e-06,2.520264230729958e-06
-4.680236268501467e-08,-1.0839150009319548e-07,1.9786740606438184e-06,2.0373112166177043e-06,1.2447526095245314e-06,9.246791933335155e-07,3.1860505316560163e-07,1.5097351140157072e-06,1.0130532802902e-06,1.5978905271782463e-06,5.782520716745585e-07,1.0607562793145594e-06,7.088666011807423e-07,1.4377953285475488e-06,7.705129897040649e-06,1.4609760880220385e-06,3.9602044973701105e-06,2.4312316100913057e-06
-8.046352049535347e-08,-1.5876511195071556e-07,1.8919554352141747e-06,1.9479875980517723e-06,1.1518103117403908e-06,8.837656997645115e-07,2.1007985955114084e-07,1.4207946180976519e-06,9.572993934505906e-07,1.5335262396055e-06,5.415634051704861e-07,9.828391314011276e-07,6.600491796402123e-07,1.4050961686021697e-06,6.900846895302476e-06,1.3178270234966965e-06,3.9435472430206295e-06,2.3389314770465516e-06
-1.1565990493962327e-07,-2.0755883173562504e-07,1.813734549783813e-06,1.8540678448641566e-06,1.0583062971913115e-06,8.419512151146244e-07,1.1122167422888095e-07,1.3386839571900324e-06,9.06795372551786e-07,1.471658950744944e-06,5.065410297671893e-07,9.107522941147689e-07,6.193675953964862e-07,1.3927806594988243e-06,6.027767600550408e-06,1.2406400639276531e-06,3.923604425665535e-06,2.2480916061913405e-06
-1.4731030133939117e-07,-2.5038839546603383e-07,1.7428022925800631e-06,1.7600552639570826e-06,9.729679403895945e-07,8.026302844328642e-07,2.9496371942551222e-08,1.2670245749780792e-06,8.626027495251202e-07,1.4137494838199564e-06,4.7152532831511577e-07,8.416971003726334e-07,5.840509355365188e-07,1.3826494002801809e-06,5.304874884209847e-06,1.2268380094524926e-06,3.898695764398156e-06,2.1627769148537742e-06
-1.7287474229498466e-07,-2.8587687877512643e-07,1.6747473181306364e-06,1.6679346153169585e-06,9.00246525865021e-07,7.662627775782458e-07,-3.475506727676614e-08,1.2052511381826827e-06,8.233572771673523e-07,1.3590654222032125e-06,4.341250577531002e-07,7.725617490152626e-07,5.484829370951355e-07,1.3500209202179863e-06,4.880651108291195e-06,1.2261071039523374e-06,3.867296179835835e-06,2.083984418989508e-06
-1.9321361174166495e-07,-3.170161585818648e-07,1.6034605319841126e-06,1.5754756610217532e-06,8.39776449829297e-07,7.308809176692598e-07,-8.625758732650718e-08,1.1494141456402497e-06,7.861912885787297e-07,1.3056040073342655e-06,3.9399953872189884e-07,7.033231332194776e-07,5.080157501512351e-07,1.273635583200472e-06,4.852133754878835e-06,1.1762563894633672e-06,3.827284631482185e-06,2.00932228685763e-06
-2.1142284465513966e-07,-3.482128400092795e-07,1.5236716168186964e-06,1.4781181983730649e-06,7.879469459147262e-07,6.942943127175751e-07,-1.297239870994049e-07,1.0941704908171534e-06,7.487593161071489e-07,1.2514671764814782e-06,3.5440780155081237e-07,6.381451640512019e-07,4.617637642944185e-07,1.1442105645840212e-06,5.247970113031322e-06,1.0499322005216777e-06,3.774587136703764e-06,1.933527755575681e-06
